1	12498
2	14165
3	16049
4	18196
5	21353
6	23172
7	24381
8	25049
9	25548
10	25849
11	26366
12	27275
13	28153
14	29011
15	29639
16	29695
17	29482
18	28907
19	27936
20	26650
21	24798
22	22405
23	19890
24	17400
25	14946
26	12700
27	10576
28	8301
29	5890
30	3890
31	2502
32	1938
33	2083
34	2559
35	3004
36	2968
37	2402
38	1683
39	938
40	306
41	49
42	22
43	-30
44	-147
45	-235
46	-346
47	-687
48	-1079
49	-1178
50	-1035
51	-569
52	691
53	2553
54	4148
55	5217
56	5661
57	5043
58	3785
59	2533
60	1494
61	816
62	387
63	30
64	-150
65	-182
66	-64
67	411
68	1193
69	1823
70	1940
71	1607
72	1039
73	286
74	-374
75	-658
76	-661
77	-673
78	-783
79	-783
80	-537
81	-109
82	619
83	1607
84	2424
85	2753
86	2724
87	2529
88	2135
89	1279
90	212
91	-808
92	-2032
93	-3162
94	-3646
95	-3579
96	-3282
97	-2863
98	-2501
99	-2044
100	-1541
101	-1020
102	-300
103	758
104	1850
105	2784
106	3495
107	3963
108	3807
109	3073
110	2185
111	1159
112	178
113	-744
114	-1588
115	-2058
116	-2070
117	-1949
118	-1762
119	-1608
120	-1536
121	-1743
122	-1977
123	-1687
124	-1225
125	-1015
126	-969
127	-1178
128	-1721
129	-2148
130	-2271
131	-2431
132	-2741
133	-3146
134	-3329
135	-2197
136	358
137	938
138	1196
139	1380
140	1715
141	2365
142	3345
143	4441
144	5414
145	6165
146	6799
147	7478
148	8156
149	8784
150	9417
151	10018
152	10597
153	11360
154	12543
155	14085
156	15706
157	17379
158	19041
159	20354
160	21446
161	22666
162	23871
163	25021
164	26220
165	27165
166	27665
167	27886
168	27952
169	27970
170	27979
171	27727
172	26975
173	25738
174	23915
175	21535
176	19095
177	16779
178	14275
179	11619
180	9102
181	6751
182	4621
183	2993
184	1944
185	1178
186	460
187	-74
188	-427
189	-870
190	-1217
191	-1241
192	-1272
193	-1383
194	-1328
195	-1185
196	-1058
197	-1085
198	-1269
199	-1568
200	-2113
201	-2923
202	-3660
203	-3976
204	-3817
205	-3198
206	-2117
207	-856
208	345
209	1089
210	1518
211	2040
212	2028
213	2235
214	1878
215	1508
216	1088
217	332
218	-467
219	-1007
220	-1330
221	-1259
222	-696
223	-81
224	242
225	134
226	-419
227	-1124
228	-1757
229	-2197
230	-2238
231	-2002
232	-1793
233	-1512
234	-1128
235	-909
236	-760
237	-517
238	-340
239	-253
240	-227
241	-306
242	-462
243	-696
244	-910
245	-1014
246	-1102
247	-1117
248	-990
249	-926
250	-996
251	-1165
252	-1483
253	-1752
254	-1724
255	-1366
256	-558
257	522
258	1277
259	1564
260	1612
261	1493
262	1512
263	2016
264	2748
265	3353
266	3686
267	3517
268	2873
269	2071
270	1235
271	497
272	-124
273	-619
274	-1025
275	-891
276	-866
277	-794
278	-767
279	-1010
280	-1599
281	-2317
282	-2724
283	-2869
284	-2770
285	-2595
286	-2223
287	-1883
288	-1538
289	-851
290	1024
291	4447
292	9368
293	15923
294	23074
295	30109
296	35874
297	38921
298	38640
299	34990
300	28072
301	18969
302	9885
303	2778
304	-1469
305	-2649
306	-1357
307	834
308	2655
309	3798
310	4137
311	3757
312	3322
313	3147
314	2755
315	2113
316	1773
317	1568
318	1215
319	1336
320	2104
321	2917
322	1695
323	2388
324	3183
325	3853
326	4454
327	4950
328	5486
329	5998
330	6384
331	6945
332	7837
333	8966
334	10191
335	11260
336	12045
337	12485
338	12641
339	12857
340	13497
341	14931
342	16806
343	18972
344	21217
345	23453
346	25408
347	26822
348	27899
349	28864
350	29407
351	29560
352	29820
353	30094
354	30193
355	30371
356	30540
357	30486
358	29636
359	28214
360	26341
361	24320
362	22222
363	19987
364	17791
365	15660
366	13504
367	11458
368	9737
369	8301
370	6928
371	5661
372	4715
373	3891
374	2896
375	2012
376	1444
377	954
378	680
379	911
380	1382
381	1784
382	2085
383	2200
384	2152
385	2242
386	2512
387	3073
388	3584
389	3858
390	3723
391	3235
392	2542
393	2319
394	2470
395	2982
396	3525
397	3999
398	3981
399	3429
400	2585
401	1600
402	650
403	61
404	-119
405	129
406	675
407	1320
408	1876
409	2139
410	2087
411	2130
412	2356
413	2552
414	2596
415	2595
416	2179
417	1128
418	85
419	-771
420	-1225
421	-1353
422	-1199
423	-861
424	-535
425	-396
426	-277
427	-177
428	27
429	187
430	228
431	12
432	-282
433	-820
434	-1312
435	-1622
436	-1649
437	-1443
438	-879
439	-138
440	654
441	1350
442	2066
443	2640
444	2806
445	2694
446	2261
447	1305
448	0
449	-1060
450	-1955
451	-2420
452	-2381
453	-2200
454	-1970
455	-1734
456	-1710
457	-1731
458	-1558
459	-1259
460	-860
461	-489
462	-373
463	-532
464	-933
465	-1427
466	-1781
467	-2087
468	-2252
469	-1714
470	-157
471	2773
472	7578
473	13793
474	20482
475	27020
476	32188
477	34601
478	33873
479	29923
480	22874
481	13965
482	5235
483	-1408
484	-5015
485	-5797
486	-4469
487	-2162
488	-247
489	753
490	1195
491	1376
492	1446
493	1639
494	2009
495	2460
496	3032
497	3689
498	4214
499	4528
500	4666
501	4659
502	4621
503	4719
504	5122
505	5884
506	6856
507	7819
508	8682
509	9395
510	9787
511	9707
512	9667
513	9485
514	9574
515	10078
516	11078
517	12545
518	14260
519	16128
520	17849
521	19260
522	20497
523	21764
524	23081
525	24538
526	26173
527	27623
528	28831
529	30063
530	31134
531	32052
532	33116
533	33949
534	34140
535	33823
536	32990
537	31574
538	29740
539	27680
540	25529
541	23265
542	20918
543	18658
544	16408
545	14145
546	12083
547	10100
548	8109
549	6394
550	4913
551	3490
552	2308
553	1506
554	1054
555	892
556	962
557	1177
558	1305
559	1204
560	964
561	618
562	243
563	8
564	-129
565	-210
566	-146
567	-35
568	28
569	135
570	372
571	864
572	1600
573	2329
574	2873
575	3006
576	2491
577	1533
578	671
579	429
580	1528
581	2359
582	2823
583	2939
584	2481
585	1336
586	427
587	-208
588	-212
589	202
590	1015
591	2013
592	2906
593	3546
594	3899
595	3736
596	3119
597	2400
598	1672
599	1085
600	828
601	638
602	260
603	-162
604	-667
605	-1039
606	-1197
607	-1038
608	-801
609	-653
610	-616
611	-697
612	-794
613	-648
614	-270
615	104
616	426
617	663
618	641
619	305
620	-89
621	-223
622	0
623	696
624	1917
625	3292
626	4342
627	4780
628	4480
629	3570
630	2340
631	1061
632	-39
633	-758
634	-1010
635	-966
636	-871
637	-813
638	-887
639	-1115
640	-1451
641	-1606
642	-1542
643	-1218
644	-1368
645	-1484
646	-1659
647	-2342
648	-3080
649	-3615
650	-3675
651	-2899
652	-505
653	3988
654	10338
655	17615
656	25537
657	32583
658	37346
659	38699
660	36432
661	30760
662	22452
663	13164
664	4911
665	-891
666	-3892
667	-4427
668	-3391
669	-2033
670	-1120
671	-745
672	-672
673	-725
674	-785
675	-769
676	-41
677	732
678	1327
679	2132
680	2771
681	3023
682	2959
683	3085
684	3052
685	2866
686	2712
687	2616
688	2421
689	2121
690	1947
691	2283
692	3205
693	4616
694	6302
695	8138
696	9506
697	10306
698	10895
699	11147
700	11458
701	12018
702	12980
703	14307
704	15877
705	17724
706	19695
707	21687
708	23605
709	25364
710	26931
711	28212
712	29329
713	30206
714	30900
715	31230
716	31391
717	30855
718	29956
719	28821
720	27278
721	25412
722	23490
723	21556
724	19539
725	17403
726	15241
727	12844
728	10521
729	8423
730	6507
731	4989
732	3914
733	3127
734	2541
735	2161
736	1767
737	1494
738	1341
739	1308
740	1448
741	1769
742	2184
743	2498
744	2571
745	2359
746	1840
747	1212
748	757
749	451
750	470
751	962
752	1723
753	2438
754	3059
755	3554
756	3636
757	3215
758	2829
759	2428
760	2115
761	1985
762	2106
763	2243
764	2279
765	2138
766	1893
767	1602
768	1186
769	996
770	905
771	765
772	431
773	148
774	-318
775	-939
776	-1381
777	-1554
778	-1631
779	-1389
780	-816
781	-208
782	214
783	312
784	-7
785	-632
786	-1172
787	-1524
788	-1457
789	-1033
790	-607
791	-275
792	-97
793	-99
794	-570
795	-1230
796	-2154
797	-3074
798	-3663
799	-3547
800	-2754
801	-1419
802	31
803	1089
804	1538
805	1262
806	477
807	-346
808	-962
809	-1448
810	-1470
811	-1136
812	-680
813	-177
814	258
815	330
816	-143
817	-1181
818	-2324
819	-3351
820	-4134
821	-4703
822	-5108
823	-5578
824	-6023
825	-6587
826	-7220
827	-7511
828	-7189
829	-6000
830	-3533
831	640
832	6766
833	14351
834	22502
835	30615
836	37547
837	41547
838	41753
839	38186
840	31042
841	21356
842	11390
843	3449
844	-1390
845	-3110
846	-2352
847	-478
848	1133
849	1824
850	1604
851	886
852	123
853	-421
854	-646
855	-550
856	-193
857	297
858	801
859	1309
860	1794
861	2329
862	3079
863	3973
864	4693
865	5342
866	5874
867	5895
868	5872
869	6129
870	6695
871	7476
872	8310
873	9135
874	9908
875	10496
876	11013
877	11698
878	12554
879	13507
880	14503
881	15606
882	17003
883	18678
884	20370
885	22360
886	24468
887	26421
888	28081
889	29489
890	30421
891	30846
892	30998
893	30851
894	30466
895	29999
896	29227
897	27870
898	26275
899	24643
900	22741
901	20814
902	19010
903	17025
904	14981
905	13002
906	10993
907	9150
908	7731
909	6603
910	5643
911	4928
912	4398
913	3858
914	3194
915	2484
916	1951
917	1401
918	879
919	634
920	512
921	431
922	379
923	348
924	46
925	-494
926	-1115
927	-1677
928	-1894
929	-1599
930	-826
931	238
932	1236
933	1949
934	2396
935	2585
936	2529
937	2424
938	2479
939	2599
940	2595
941	2429
942	2056
943	1301
944	173
945	-1043
946	-1985
947	-2494
948	-2584
949	-2246
950	-1719
951	-1288
952	-974
953	-796
954	-745
955	-593
956	-284
957	28
958	236
959	409
960	413
961	219
962	35
963	-130
964	-374
965	-708
966	-1040
967	-1357
968	-1602
969	-1586
970	-1389
971	-1115
972	-568
973	193
974	863
975	1447
976	2063
977	2492
978	2554
979	2608
980	2837
981	2825
982	2464
983	1964
984	1164
985	71
986	-827
987	-1280
988	-1421
989	-1367
990	-1231
991	-1154
992	-1202
993	-1279
994	-1220
995	-1035
996	-789
997	-496
998	-344
999	-419
1000	-594
1001	-960
1002	-1629
1003	-2311
1004	-2447
1005	-1612
1006	532
1007	4623
1008	10738
1009	17803
1010	24878
1011	31230
1012	35550
1013	36653
1014	34247
1015	28627
1016	20455
1017	11132
1018	2548
1019	-3398
1020	-5897
1021	-5553
1022	-3281
1023	-204
1024	2221
1025	3388
1026	3646
1027	3354
1028	2854
1029	2507
1030	2429
1031	2582
1032	2837
1033	3090
1034	3410
1035	3792
1036	4179
1037	4588
1038	4880
1039	4912
1040	4787
1041	4695
1042	4906
1043	5635
1044	6762
1045	7996
1046	9183
1047	10228
1048	10967
1049	11526
1050	12285
1051	13172
1052	13979
1053	14915
1054	16045
1055	17226
1056	18427
1057	19536
1058	20559
1059	21706
1060	22938
1061	24279
1062	26155
1063	28434
1064	30409
1065	31947
1066	33190
1067	33870
1068	33862
1069	33570
1070	33368
1071	33107
1072	32532
1073	31687
1074	30567
1075	28899
1076	26525
1077	23699
1078	20763
1079	17819
1080	15036
1081	12728
1082	10929
1083	9438
1084	8134
1085	6969
1086	5888
1087	4894
1088	4065
1089	3348
1090	2518
1091	1505
1092	620
1093	-47
1094	-331
1095	-18
1096	683
1097	1429
1098	1802
1099	1669
1100	1304
1101	1027
1102	875
1103	1115
1104	1725
1105	2320
1106	2498
1107	2375
1108	2059
1109	1543
1110	942
1111	580
1112	630
1113	741
1114	1262
1115	1943
1116	2500
1117	2650
1118	2591
1119	2466
1120	2181
1121	1786
1122	1448
1123	1292
1124	1129
1125	928
1126	814
1127	697
1128	448
1129	80
1130	-180
1131	-93
1132	301
1133	905
1134	1561
1135	1954
1136	1913
1137	1414
1138	666
1139	-116
1140	-941
1141	-1739
1142	-2327
1143	-2698
1144	-2843
1145	-2671
1146	-2312
1147	-1964
1148	-1663
1149	-1599
1150	-1408
1151	-1096
1152	-464
1153	387
1154	1425
1155	2302
1156	2783
1157	2752
1158	2217
1159	1215
1160	117
1161	-839
1162	-1484
1163	-1796
1164	-1827
1165	-1871
1166	-2008
1167	-2188
1168	-2452
1169	-2873
1170	-3281
1171	-3479
1172	-3620
1173	-3775
1174	-3673
1175	-3347
1176	-3306
1177	-3726
1178	-4332
1179	-4993
1180	-5382
1181	-4688
1182	-2328
1183	1837
1184	7682
1185	14523
1186	21402
1187	27956
1188	33170
1189	35751
1190	34999
1191	30842
1192	23792
1193	14935
1194	6307
1195	-30
1196	-3617
1197	-4923
1198	-4679
1199	-3606
1200	-2950
1201	-2871
1202	-2696
1203	-2193
1204	-1552
1205	-833
1206	-240
1207	251
1208	313
1209	181
1210	0
1211	135
1212	233
1213	888
1214	1541
1215	2401
1216	3455
1217	4647
1218	5641
1219	6188
1220	6394
1221	6385
1222	6307
1223	6479
1224	7126
1225	7870
1226	8586
1227	9237
1228	9519
1229	9679
1230	10206
1231	11196
1232	12531
1233	14306
1234	16361
1235	18509
1236	20602
1237	22717
1238	24636
1239	26276
1240	27583
1241	28553
1242	29294
1243	29921
1244	30649
1245	31494
1246	32022
1247	31824
1248	30903
1249	28996
1250	26507
1251	23958
1252	21588
1253	19371
1254	17295
1255	15395
1256	13540
1257	11465
1258	9464
1259	7893
1260	6618
1261	5584
1262	4832
1263	4325
1264	3961
1265	3656
1266	3386
1267	3103
1268	2711
1269	2155
1270	1402
1271	444
1272	-520
1273	-1238
1274	-1646
1275	-1635
1276	-1239
1277	-768
1278	-480
1279	-597
1280	-992
1281	-1296
1282	-1185
1283	-575
1284	381
1285	1412
1286	2132
1287	2273
1288	1994
1289	1653
1290	1390
1291	1240
1292	1255
1293	1292
1294	1197
1295	1095
1296	1005
1297	737
1298	317
1299	-225
1300	-1015
1301	-1881
1302	-2470
1303	-2607
1304	-2234
1305	-1537
1306	-978
1307	-865
1308	-1110
1309	-1728
1310	-2499
1311	-2979
1312	-2923
1313	-2901
1314	-2926
1315	-3013
1316	-3372
1317	-3822
1318	-4089
1319	-3906
1320	-3438
1321	-2762
1322	-2113
1323	-1582
1324	-1808
1325	-2292
1326	-2957
1327	-3609
1328	-3943
1329	-4055
1330	-4121
1331	-4067
1332	-3932
1333	-3930
1334	-4001
1335	-3932
1336	-3819
1337	-3662
1338	-3166
1339	-2366
1340	-1428
1341	-358
1342	536
1343	959
1344	971
1345	621
1346	-9
1347	-740
1348	-1461
1349	-2109
1350	-2729
1351	-3366
1352	-3894
1353	-4216
1354	-4348
1355	-4262
1356	-3926
1357	-3428
1358	-2906
1359	-2478
1360	-2293
1361	-2407
1362	-2724
1363	-3289
1364	-4047
1365	-4633
1366	-5053
1367	-5302
1368	-4740
1369	-3038
1370	-90
1371	4602
1372	10791
1373	17604
1374	24708
1375	31309
1376	35876
1377	37677
1378	36451
1379	31712
1380	23999
1381	15186
1382	7152
1383	1222
1384	-1847
1385	-2382
1386	-1623
1387	-813
1388	28
1389	165
1390	7
1391	34
1392	0
1393	-121
1394	-58
1395	0
1396	-35
1397	75
1398	320
1399	631
1400	1129
1401	1699
1402	2195
1403	2735
1404	3197
1405	3355
1406	3369
1407	3358
1408	3290
1409	3257
1410	3300
1411	3520
1412	4073
1413	4953
1414	6009
1415	7674
1416	9567
1417	11351
1418	12982
1419	14479
1420	15756
1421	16917
1422	18104
1423	19202
1424	20141
1425	21129
1426	22254
1427	23342
1428	24387
1429	25451
1430	26298
1431	26770
1432	27062
1433	27362
1434	27644
1435	27728
1436	27475
1437	26826
1438	25625
1439	23701
1440	21241
1441	18664
1442	16062
1443	13404
1444	10959
1445	8928
1446	7164
1447	5577
1448	5538
1449	4734
1450	4168
1451	3574
1452	3103
1453	2689
1454	2279
1455	1888
1456	1417
1457	1064
1458	826
1459	558
1460	519
1461	655
1462	615
1463	456
1464	292
1465	-207
1466	-751
1467	-976
1468	-971
1469	-662
1470	96
1471	931
1472	1752
1473	2466
1474	2935
1475	2986
1476	2773
1477	2465
1478	2002
1479	1581
1480	1342
1481	965
1482	382
1483	-223
1484	-809
1485	-1353
1486	-1500
1487	-1386
1488	-1099
1489	-600
1490	-5
1491	260
1492	578
1493	824
1494	948
1495	1093
1496	1231
1497	1263
1498	1446
1499	1535
1500	1416
1501	1168
1502	650
1503	-147
1504	-892
1505	-1407
1506	-1743
1507	-1848
1508	-1729
1509	-1664
1510	-1753
1511	-1816
1512	-1782
1513	-1563
1514	-1047
1515	-314
1516	232
1517	555
1518	748
1519	832
1520	811
1521	959
1522	1340
1523	1652
1524	1389
1525	923
1526	65
1527	-1246
1528	-2594
1529	-3441
1530	-3709
1531	-3343
1532	-2562
1533	-1568
1534	-743
1535	-292
1536	172
1537	681
1538	1192
1539	1726
1540	2160
1541	2244
1542	1946
1543	1305
1544	501
1545	-326
1546	-1057
1547	-1731
1548	-2393
1549	-2924
1550	-3290
1551	-3460
1552	-3458
1553	-3146
1554	-2705
1555	-2586
1556	-2847
1557	-3359
1558	-4272
1559	-5475
1560	-5918
1561	-5078
1562	-3011
1563	960
1564	7048
1565	13773
1566	21140
1567	28239
1568	33540
1569	36336
1570	36124
1571	32294
1572	25093
1573	16243
1574	7318
1575	0
1576	-4337
1577	-5774
1578	-5276
1579	-3793
1580	-2337
1581	-1535
1582	-1281
1583	-1151
1584	-653
1585	-60
1586	594
1587	1122
1588	1513
1589	1628
1590	1514
1591	1328
1592	1272
1593	1350
1594	1659
1595	2039
1596	2425
1597	3027
1598	3653
1599	4553
1600	5689
1601	7040
1602	8268
1603	9347
1604	9834
1605	10171
1606	10370
1607	10695
1608	11365
1609	12257
1610	13427
1611	14825
1612	16218
1613	17586
1614	18925
1615	20179
1616	21343
1617	22529
1618	23856
1619	25234
1620	26568
1621	27849
1622	29030
1623	29971
1624	30785
1625	31395
1626	31832
1627	32094
1628	32048
1629	31682
1630	30851
1631	29521
1632	27797
1633	25624
1634	23062
1635	20276
1636	17217
1637	14149
1638	11529
1639	9461
1640	7931
1641	6940
1642	6118
1643	5135
1644	4067
1645	3032
1646	2100
1647	1568
1648	1450
1649	1509
1650	1635
1651	1731
1652	1724
1653	1609
1654	1452
1655	1340
1656	1189
1657	939
1658	736
1659	655
1660	459
1661	207
1662	0
1663	-120
1664	-238
1665	-180
1666	148
1667	479
1668	732
1669	1038
1670	1320
1671	1625
1672	2133
1673	2663
1674	2935
1675	2937
1676	2684
1677	2209
1678	1749
1679	1513
1680	1458
1681	1426
1682	1341
1683	1146
1684	665
1685	-54
1686	-792
1687	-1581
1688	-2219
1689	-2494
1690	-2208
1691	-1584
1692	-877
1693	-310
1694	0
1695	-65
1696	-422
1697	-855
1698	-1311
1699	-1787
1700	-2338
1701	-2965
1702	-3479
1703	-3851
1704	-3938
1705	-3512
1706	-2778
1707	-1865
1708	-846
1709	-139
1710	-56
1711	-403
1712	-931
1713	-1760
1714	-2570
1715	-2778
1716	-2516
1717	-2115
1718	-1425
1719	-554
1720	22
1721	280
1722	454
1723	554
1724	578
1725	565
1726	528
1727	378
1728	-52
1729	-641
1730	-1152
1731	-1555
1732	-1712
1733	-1508
1734	-1239
1735	-1165
1736	-1325
1737	-1862
1738	-2668
1739	-3298
1740	-3639
1741	-3776
1742	-3664
1743	-3507
1744	-3628
1745	-4025
1746	-4484
1747	-4699
1748	-4242
1749	-2515
1750	1148
1751	6827
1752	13763
1753	21169
1754	28250
1755	33466
1756	35518
1757	34320
1758	29950
1759	22592
1760	13585
1761	4984
1762	-1511
1763	-5092
1764	-5766
1765	-4276
1766	-1870
1767	-11
1768	932
1769	949
1770	306
1771	-147
1772	-303
1773	-436
1774	-406
1775	-128
1776	167
1777	428
1778	842
1779	1515
1780	2272
1781	2946
1782	3575
1783	4132
1784	4496
1785	4654
1786	4748
1787	4871
1788	5044
1789	5422
1790	5987
1791	6540
1792	7214
1793	8096
1794	8928
1795	9947
1796	11447
1797	13322
1798	15245
1799	17094
1800	18707
1801	19768
1802	20263
1803	20534
1804	20881
1805	21521
1806	22644
1807	24169
1808	25870
1809	27679
1810	29378
1811	30692
1812	31705
1813	32327
1814	32265
1815	31654
1816	30639
1817	29089
1818	27070
1819	24810
1820	22379
1821	19692
1822	16824
1823	14529
1824	11948
1825	9491
1826	7337
1827	6261
1828	5276
1829	4486
1830	3707
1831	3105
1832	2534
1833	1597
1834	961
1835	668
1836	566
1837	489
1838	489
1839	324
1840	-5
1841	-348
1842	-602
1843	-536
1844	-90
1845	456
1846	1066
1847	1508
1848	1660
1849	1237
1850	521
1851	-174
1852	-565
1853	-496
1854	28
1855	985
1856	1964
1857	2336
1858	2131
1859	1620
1860	618
1861	-350
1862	-626
1863	-259
1864	355
1865	1293
1866	2194
1867	2619
1868	2516
1869	2151
1870	1504
1871	800
1872	438
1873	439
1874	725
1875	1135
1876	1449
1877	1479
1878	1068
1879	246
1880	-799
1881	-1807
1882	-2651
1883	-3124
1884	-3176
1885	-2855
1886	-2315
1887	-1801
1888	-1232
1889	-828
1890	-801
1891	-1000
1892	-1321
1893	-1720
1894	-2033
1895	-2052
1896	-1722
1897	-1220
1898	-706
1899	-248
1900	30
1901	133
1902	-69
1903	-587
1904	-1014
1905	-1461
1906	-1921
1907	-2083
1908	-1856
1909	-1498
1910	-893
1911	-363
1912	-145
1913	-28
1914	32
1915	-32
1916	261
1917	884
1918	1217
1919	1301
1920	920
1921	16
1922	-1022
1923	-1715
1924	-2011
1925	-1989
1926	-1696
1927	-1363
1928	-1388
1929	-1785
1930	-2132
1931	-2634
1932	-3183
1933	-3454
1934	-3615
1935	-3858
1936	-4153
1937	-4406
1938	-4795
1939	-5267
1940	-5484
1941	-5295
1942	-4443
1943	-2541
1944	880
1945	6021
1946	12311
1947	19294
1948	26284
1949	31891
1950	34724
1951	34358
1952	30801
1953	24146
1954	15465
1955	6924
1956	398
1957	-3477
1958	-4698
1959	-3710
1960	-1863
1961	-447
1962	202
1963	226
1964	-51
1965	-323
1966	-491
1967	-475
1968	-281
1969	-164
1970	111
1971	311
1972	402
1973	465
1974	592
1975	806
1976	1244
1977	1960
1978	2772
1979	3567
1980	4274
1981	4896
1982	5568
1983	6491
1984	7646
1985	8923
1986	10090
1987	10943
1988	11292
1989	11176
1990	10910
1991	10944
1992	11492
1993	12577
1994	14260
1995	16470
1996	18849
1997	20977
1998	22652
1999	23895
2000	24593
2001	24957
2002	25440
2003	26343
2004	27623
2005	29057
2006	30370
2007	31160
2008	31427
2009	30950
2010	29878
2011	28408
2012	26795
2013	25095
2014	23225
2015	21355
2016	19630
2017	17673
2018	15412
2019	13264
2020	11191
2021	9065
2022	7128
2023	5399
2024	3836
2025	2540
2026	1483
2027	740
2028	353
2029	116
2030	-60
2031	-153
2032	-171
2033	-116
2034	0
2035	217
2036	565
2037	1000
2038	1520
2039	2079
2040	2491
2041	2559
2042	2150
2043	1361
2044	466
2045	-486
2046	-1175
2047	-1366
2048	-1250
2049	-1159
2050	-770
2051	-236
2052	177
2053	538
2054	937
2055	1150
2056	1172
2057	1281
2058	1309
2059	1053
2060	808
2061	496
2062	-159
2063	-771
2064	-1003
2065	-1068
2066	-1047
2067	-779
2068	-457
2069	-458
2070	-714
2071	-1055
2072	-1593
2073	-2066
2074	-2583
2075	-2934
2076	-3171
2077	-3261
2078	-3143
2079	-2874
2080	-2594
2081	-2283
2082	-2026
2083	-2080
2084	-2355
2085	-2589
2086	-2755
2087	-2292
2088	-1889
2089	-1158
2090	-546
2091	-134
2092	106
2093	0
2094	-524
2095	-1153
2096	-1687
2097	-2323
2098	-3018
2099	-3410
2100	-3590
2101	-3805
2102	-3788
2103	-3359
2104	-2799
2105	-2206
2106	-1380
2107	-331
2108	689
2109	1482
2110	2002
2111	2239
2112	2074
2113	1481
2114	745
2115	40
2116	-718
2117	-1461
2118	-2004
2119	-2332
2120	-2519
2121	-2665
2122	-2838
2123	-3051
2124	-3297
2125	-3487
2126	-3558
2127	-3567
2128	-3541
2129	-3563
2130	-3755
2131	-3992
2132	-4050
2133	-3854
2134	-3284
2135	-1967
2136	469
2137	4404
2138	9394
2139	15645
2140	22594
2141	29472
2142	34776
2143	37325
2144	36867
2145	33025
2146	25888
2147	17032
2148	8478
2149	1829
2150	-1902
2151	-2643
2152	-1482
2153	191
2154	1309
2155	1320
2156	474
2157	-223
2158	-552
2159	-510
2160	-132
2161	292
2162	465
2163	340
2164	164
2165	129
2166	335
2167	735
2168	1330
2169	2130
2170	2826
2171	3389
2172	3783
2173	4115
2174	4301
2175	4456
2176	4927
2177	5692
2178	6544
2179	7519
2180	8562
2181	9613
2182	10647
2183	11541
2184	12380
2185	13243
2186	13988
2187	15045
2188	16646
2189	18512
2190	20366
2191	22095
2192	23462
2193	24314
2194	24835
2195	25316
2196	25913
2197	26627
2198	27689
2199	28527
2200	29360
2201	30015
2202	30150
2203	29739
2204	28660
2205	26810
2206	24370
2207	21869
2208	19543
2209	17237
2210	15078
2211	13227
2212	11256
2213	9496
2214	7967
2215	6565
2216	5296
2217	4143
2218	2924
2219	1718
2220	646
2221	-133
2222	-409
2223	-285
2224	177
2225	871
2226	1497
2227	1679
2228	1493
2229	1342
2230	1192
2231	1146
2232	1349
2233	1478
2234	1205
2235	710
2236	200
2237	-237
2238	-383
2239	-172
2240	269
2241	835
2242	1403
2243	1968
2244	2323
2245	2483
2246	2565
2247	2555
2248	2417
2249	2366
2250	2157
2251	1705
2252	1213
2253	611
2254	38
2255	-222
2256	-277
2257	-226
2258	-132
2259	-97
2260	-266
2261	-726
2262	-1288
2263	-1523
2264	-1314
2265	-848
2266	0
2267	1093
2268	1707
2269	1645
2270	1499
2271	1308
2272	892
2273	680
2274	739
2275	675
2276	449
2277	223
2278	0
2279	-168
2280	-358
2281	-641
2282	-1115
2283	-1609
2284	-2051
2285	-2319
2286	-2346
2287	-2055
2288	-1674
2289	-1263
2290	-726
2291	-74
2292	659
2293	1363
2294	1829
2295	2122
2296	2262
2297	2040
2298	1781
2299	1680
2300	1422
2301	953
2302	607
2303	244
2304	-140
2305	-648
2306	-1049
2307	-1549
2308	-2166
2309	-2768
2310	-2929
2311	-2742
2312	-2411
2313	-1852
2314	-1284
2315	-1125
2316	-1240
2317	-1533
2318	-2019
2319	-2531
2320	-2923
2321	-3246
2322	-3746
2323	-3526
2324	-2539
2325	-507
2326	3189
2327	8518
2328	14742
2329	21508
2330	28065
2331	32674
2332	34263
2333	32620
2334	27490
2335	19307
2336	9751
2337	1059
2338	-5072
2339	-8085
2340	-8153
2341	-6053
2342	-3270
2343	-998
2344	755
2345	1913
2346	2589
2347	3098
2348	3462
2349	3530
2350	3257
2351	2745
2352	2219
2353	1809
2354	1646
2355	1903
2356	2400
2357	2956
2358	3479
2359	3940
2360	4215
2361	4421
2362	4728
2363	5202
2364	5981
2365	7079
2366	8357
2367	9542
2368	10471
2369	11331
2370	12185
2371	12937
2372	13847
2373	15075
2374	16208
2375	17276
2376	18688
2377	20369
2378	21906
2379	23243
2380	24486
2381	25507
2382	26371
2383	27423
2384	28836
2385	30386
2386	31870
2387	33186
2388	34057
2389	34376
2390	34201
2391	33492
2392	32153
2393	30313
2394	28172
2395	25745
2396	23159
2397	20778
2398	18743
2399	16885
2400	15058
2401	13129
2402	10889
2403	8311
2404	5711
2405	3481
2406	1886
2407	981
2408	578
2409	566
2410	901
2411	1269
2412	1482
2413	1691
2414	1759
2415	1416
2416	892
2417	494
2418	196
2419	-49
2420	-256
2421	-393
2422	-373
2423	-308
2424	-232
2425	50
2426	496
2427	897
2428	1249
2429	1556
2430	1721
2431	1662
2432	1329
2433	753
2434	124
2435	-285
2436	-453
2437	-494
2438	-196
2439	422
2440	826
2441	936
2442	1006
2443	860
2444	382
2445	-106
2446	-407
2447	-706
2448	-598
2449	-899
2450	-1203
2451	-1617
2452	-1821
2453	-1750
2454	-1743
2455	-1807
2456	-1902
2457	-2286
2458	-2842
2459	-3098
2460	-2922
2461	-2440
2462	-1661
2463	-1015
2464	-546
2465	-428
2466	-444
2467	-586
2468	-646
2469	-702
2470	-951
2471	-1344
2472	-1762
2473	-2149
2474	-2291
2475	-2079
2476	-1692
2477	-1342
2478	-1166
2479	-1142
2480	-1114
2481	-1027
2482	-852
2483	-461
2484	42
2485	393
2486	604
2487	793
2488	854
2489	658
2490	273
2491	-116
2492	-325
2493	-317
2494	-229
2495	-199
2496	-402
2497	-1111
2498	-2280
2499	-3368
2500	-4004
2501	-4238
2502	-4104
2503	-3717
2504	-3397
2505	-3329
2506	-3484
2507	-3810
2508	-4255
2509	-4529
2510	-4117
2511	-2671
2512	459
2513	5594
2514	12397
2515	19691
2516	26860
2517	32788
2518	36260
2519	36485
2520	33350
2521	27303
2522	18907
2523	9860
2524	1891
2525	-3776
2526	-6591
2527	-6740
2528	-5156
2529	-3034
2530	-1249
2531	146
2532	733
2533	579
2534	17
2535	-646
2536	-1116
2537	-1105
2538	-497
2539	514
2540	1487
2541	2089
2542	2244
2543	1985
2544	1510
2545	1178
2546	1208
2547	1602
2548	2275
2549	3018
2550	3631
2551	4166
2552	4697
2553	5293
2554	6232
2555	7587
2556	9037
2557	10402
2558	11644
2559	12621
2560	13356
2561	14120
2562	15049
2563	16141
2564	17418
2565	18825
2566	20163
2567	21427
2568	22693
2569	23898
2570	24951
2571	25809
2572	26526
2573	27515
2574	28008
2575	28353
2576	28838
2577	29241
2578	29257
2579	28851
2580	28143
2581	26773
2582	24829
2583	22676
2584	20186
2585	17939
2586	15260
2587	13107
2588	10746
2589	8582
2590	6572
2591	4575
2592	3031
2593	2049
2594	1440
2595	1486
2596	1933
2597	2169
2598	2231
2599	2361
2600	2381
2601	2212
2602	2051
2603	1818
2604	1331
2605	907
2606	530
2607	-68
2608	-514
2609	-622
2610	-745
2611	-656
2612	-40
2613	676
2614	1289
2615	1919
2616	2355
2617	2353
2618	2196
2619	2183
2620	2382
2621	2818
2622	3343
2623	3753
2624	3894
2625	3399
2626	2477
2627	1794
2628	1109
2629	592
2630	535
2631	562
2632	393
2633	104
2634	-164
2635	-431
2636	-547
2637	-339
2638	0
2639	423
2640	654
2641	406
2642	-2
2643	-611
2644	-1234
2645	-1516
2646	-1504
2647	-1399
2648	-1384
2649	-1472
2650	-1807
2651	-2230
2652	-2478
2653	-2400
2654	-2021
2655	-1535
2656	-1146
2657	-998
2658	-1136
2659	-1396
2660	-1634
2661	-1666
2662	-1282
2663	-768
2664	-427
2665	-219
2666	17
2667	-17
2668	0
2669	153
2670	507
2671	832
2672	1043
2673	1037
2674	687
2675	60
2676	-693
2677	-1439
2678	-2156
2679	-2628
2680	-2941
2681	-2950
2682	-2815
2683	-2782
2684	-2706
2685	-3014
2686	-3733
2687	-4322
2688	-4745
2689	-5284
2690	-5820
2691	-5855
2692	-5845
2693	-5801
2694	-5035
2695	-3316
2696	-395
2697	4230
2698	10628
2699	17933
2700	25510
2701	32533
2702	37424
2703	39160
2704	37500
2705	32320
2706	24158
2707	14696
2708	6090
2709	-160
2710	-3538
2711	-4185
2712	-3011
2713	-1397
2714	-261
2715	190
2716	129
2717	-164
2718	-426
2719	-437
2720	-115
2721	393
2722	887
2723	1369
2724	1650
2725	1917
2726	2248
2727	2717
2728	3522
2729	4404
2730	4979
2731	5263
2732	5254
2733	4878
2734	4423
2735	4110
2736	4153
2737	4678
2738	5696
2739	7034
2740	8550
2741	10049
2742	11359
2743	12514
2744	13611
2745	14719
2746	15858
2747	17030
2748	18223
2749	19405
2750	20590
2751	21770
2752	23203
2753	24834
2754	26349
2755	27622
2756	28550
2757	29095
2758	29194
2759	29228
2760	29457
2761	29551
2762	29456
2763	29065
2764	28199
2765	26708
2766	24703
2767	22319
2768	19775
2769	17316
2770	14967
2771	12733
2772	10631
2773	8601
2774	6577
2775	4633
2776	3024
2777	1892
2778	1234
2779	1002
2780	1004
2781	1160
2782	1202
2783	1086
2784	931
2785	822
2786	518
2787	152
2788	34
2789	-33
2790	-138
2791	-8
2792	239
2793	286
2794	177
2795	12
2796	-212
2797	-356
2798	-236
2799	219
2800	928
2801	1586
2802	1922
2803	1907
2804	1673
2805	1273
2806	806
2807	456
2808	219
2809	-36
2810	-296
2811	-535
2812	-724
2813	-737
2814	-689
2815	-795
2816	-839
2817	-796
2818	-692
2819	-540
2820	-302
2821	-1
2822	181
2823	131
2824	-177
2825	-619
2826	-1224
2827	-2017
2828	-2565
2829	-2796
2830	-2752
2831	-2356
2832	-1746
2833	-1208
2834	-826
2835	-646
2836	-757
2837	-1009
2838	-1101
2839	-868
2840	-279
2841	656
2842	1719
2843	2542
2844	2985
2845	2982
2846	2419
2847	1382
2848	113
2849	-1081
2850	-2033
2851	-2654
2852	-2617
2853	-2015
2854	-1446
2855	-1000
2856	-643
2857	-684
2858	-946
2859	-1038
2860	-951
2861	-560
2862	109
2863	609
2864	871
2865	925
2866	407
2867	-600
2868	-1646
2869	-2579
2870	-3038
2871	-2352
2872	-112
2873	3943
2874	9726
2875	16379
2876	23142
2877	29451
2878	33979
2879	35633
2880	34418
2881	30300
2882	23376
2883	14960
2884	6899
2885	617
2886	-3211
2887	-4425
2888	-3560
2889	-1578
2890	217
2891	1409
2892	2120
2893	2296
2894	1975
2895	1522
2896	949
2897	231
2898	-341
2899	-457
2900	-156
2901	676
2902	2149
2903	3815
2904	5276
2905	6504
2906	7268
2907	7423
2908	7381
2909	7250
2910	7232
2911	7649
2912	8539
2913	9548
2914	10259
2915	10643
2916	10543
2917	9919
2918	9808
2919	10466
2920	11749
2921	13486
2922	15532
2923	17448
2924	18878
2925	20218
2926	21904
2927	23838
2928	26015
2929	28399
2930	30409
2931	31695
2932	32257
2933	32206
2934	31976
2935	31751
2936	31362
2937	30876
2938	30234
2939	29076
2940	27385
2941	25426
2942	23228
2943	20798
2944	18353
2945	16103
2946	14187
2947	12631
2948	11900
2949	10712
2950	9320
2951	7543
2952	5748
2953	3996
2954	2645
2955	1986
2956	1768
2957	1599
2958	1435
2959	1182
2960	700
2961	287
2962	0
2963	-287
2964	-504
2965	-618
2966	-534
2967	-267
2968	276
2969	846
2970	1247
2971	1529
2972	1437
2973	1106
2974	867
2975	881
2976	1172
2977	1494
2978	1671
2979	1743
2980	1618
2981	1458
2982	1722
2983	2103
2984	2455
2985	2779
2986	2882
2987	2655
2988	2330
2989	1965
2990	1648
2991	1589
2992	1536
2993	1334
2994	1173
2995	876
2996	402
2997	0
2998	-332
2999	-681
3000	-789
3001	-663
3002	-484
3003	-235
3004	50
3005	191
3006	162
3007	19
3008	-82
3009	-181
3010	-320
3011	-442
3012	-377
3013	-90
3014	217
3015	734
3016	1391
3017	1955
3018	2400
3019	2659
3020	2465
3021	2055
3022	1419
3023	546
3024	-280
3025	-910
3026	-1405
3027	-1702
3028	-1809
3029	-1909
3030	-2123
3031	-2332
3032	-2321
3033	-2466
3034	-2461
3035	-2321
3036	-2235
3037	-2204
3038	-2098
3039	-2144
3040	-2564
3041	-3152
3042	-3945
3043	-4541
3044	-4083
3045	-1990
3046	2128
3047	8165
3048	15142
3049	22230
3050	28755
3051	33626
3052	35657
3053	34462
3054	30256
3055	22858
3056	13857
3057	5129
3058	-1169
3059	-4594
3060	-5228
3061	-3916
3062	-1978
3063	-888
3064	-700
3065	-1041
3066	-1507
3067	-2118
3068	-2700
3069	-3073
3070	-3348
3071	-3513
3072	-3335
3073	-1846
3074	-763
3075	228
3076	1309
3077	2139
3078	2814
3079	3468
3080	4323
3081	5430
3082	6460
3083	7243
3084	7579
3085	7496
3086	6977
3087	6471
3088	6257
3089	6542
3090	7205
3091	8112
3092	9271
3093	10747
3094	12381
3095	14200
3096	16408
3097	18557
3098	20538
3099	22340
3100	23822
3101	25032
3102	26048
3103	26930
3104	27606
3105	28202
3106	28811
3107	29198
3108	29481
3109	29665
3110	29581
3111	29059
3112	28033
3113	26493
3114	24507
3115	22197
3116	19741
3117	17406
3118	15152
3119	12914
3120	10781
3121	8892
3122	7204
3123	5989
3124	5068
3125	4307
3126	3678
3127	2920
3128	1925
3129	1079
3130	491
3131	160
3132	253
3133	647
3134	1071
3135	1398
3136	1475
3137	1319
3138	1056
3139	634
3140	114
3141	-284
3142	-619
3143	-868
3144	-792
3145	-432
3146	72
3147	649
3148	1101
3149	1303
3150	1313
3151	1172
3152	946
3153	770
3154	616
3155	478
3156	466
3157	454
3158	393
3159	439
3160	339
3161	0
3162	-311
3163	-655
3164	-952
3165	-967
3166	-845
3167	-715
3168	-613
3169	-607
3170	-717
3171	-913
3172	-1106
3173	-1246
3174	-1505
3175	-1890
3176	-2217
3177	-2488
3178	-2706
3179	-2806
3180	-2894
3181	-3042
3182	-3172
3183	-3343
3184	-3503
3185	-3484
3186	-3126
3187	-2518
3188	-1857
3189	-1262
3190	-765
3191	-512
3192	-516
3193	-589
3194	-581
3195	-451
3196	-365
3197	-407
3198	-448
3199	-547
3200	-762
3201	-959
3202	-1308
3203	-1868
3204	-2403
3205	-2848
3206	-3166
3207	-3149
3208	-2888
3209	-2838
3210	-3090
3211	-3428
3212	-3927
3213	-4555
3214	-4968
3215	-5200
3216	-5511
3217	-5742
3218	-5524
3219	-4569
3220	-2498
3221	1181
3222	6720
3223	13591
3224	20941
3225	28319
3226	34823
3227	38986
3228	40063
3229	37832
3230	32162
3231	23718
3232	14168
3233	5677
3234	-187
3235	-3069
3236	-3219
3237	-1491
3238	549
3239	1803
3240	2201
3241	1913
3242	1031
3243	247
3244	-148
3245	-185
3246	44
3247	527
3248	1027
3249	1345
3250	1583
3251	1870
3252	2254
3253	2812
3254	3461
3255	3997
3256	4406
3257	4687
3258	4775
3259	4785
3260	4930
3261	5266
3262	5976
3263	6946
3264	8175
3265	9618
3266	11040
3267	12288
3268	13410
3269	14472
3270	15281
3271	16149
3272	17068
3273	18110
3274	19282
3275	20446
3276	21798
3277	23390
3278	24914
3279	26251
3280	27391
3281	28057
3282	28166
3283	27975
3284	27649
3285	27271
3286	26957
3287	26609
3288	25968
3289	24841
3290	23206
3291	21227
3292	19070
3293	16971
3294	15233
3295	13813
3296	12448
3297	10928
3298	9082
3299	7008
3300	4873
3301	2779
3302	1090
3303	24
3304	-616
3305	-896
3306	-778
3307	-534
3308	-337
3309	-224
3310	-156
3311	-135
3312	-131
3313	-43
3314	123
3315	236
3316	314
3317	429
3318	444
3319	316
3320	267
3321	213
3322	0
3323	80
3324	166
3325	249
3326	625
3327	1175
3328	1692
3329	2198
3330	2605
3331	2528
3332	2028
3333	1335
3334	665
3335	167
3336	61
3337	321
3338	632
3339	758
3340	609
3341	208
3342	-288
3343	-706
3344	-983
3345	-1061
3346	-917
3347	-724
3348	-596
3349	-467
3350	-383
3351	-350
3352	-369
3353	-392
3354	-296
3355	-291
3356	-578
3357	-736
3358	-618
3359	-577
3360	-454
3361	-120
3362	-143
3363	-653
3364	-1109
3365	-1283
3366	-1136
3367	-497
3368	572
3369	1788
3370	2912
3371	3764
3372	4266
3373	4414
3374	4074
3375	3115
3376	1708
3377	184
3378	-1141
3379	-1962
3380	-2127
3381	-1693
3382	-1006
3383	-528
3384	-359
3385	-355
3386	-549
3387	-765
3388	-611
3389	-161
3390	190
3391	393
3392	320
3393	-127
3394	-742
3395	-1113
3396	-799
3397	338
3398	3056
3399	7420
3400	13202
3401	19761
3402	26668
3403	33005
3404	37158
3405	38026
3406	35631
3407	29762
3408	21225
3409	12140
3410	4478
3411	-708
3412	-3288
3413	-3473
3414	-2106
3415	-418
3416	949
3417	1800
3418	2160
3419	2326
3420	2363
3421	2231
3422	2083
3423	1995
3424	1981
3425	2134
3426	2607
3427	3480
3428	4581
3429	5632
3430	6472
3431	6972
3432	7021
3433	6785
3434	6552
3435	6373
3436	6328
3437	6487
3438	6683
3439	7026
3440	7780
3441	8897
3442	10433
3443	12377
3444	14291
3445	15926
3446	17383
3447	18055
3448	19151
3449	20530
3450	21914
3451	23077
3452	24389
3453	25647
3454	26543
3455	27605
3456	28836
3457	30001
3458	30730
3459	30982
3460	31036
3461	31004
3462	30960
3463	31122
3464	31332
3465	31109
3466	30228
3467	28701
3468	26554
3469	23863
3470	20884
3471	17946
3472	15193
3473	12653
3474	10436
3475	8634
3476	7166
3477	5897
3478	4917
3479	4268
3480	3666
3481	3132
3482	2874
3483	2555
3484	2066
3485	1827
3486	1769
3487	1671
3488	1732
3489	2012
3490	2279
3491	2411
3492	2613
3493	2801
3494	2834
3495	2761
3496	2520
3497	2143
3498	1632
3499	1246
3500	1077
3501	1352
3502	1957
3503	2560
3504	3271
3505	3868
3506	4062
3507	4041
3508	3978
3509	3682
3510	3321
3511	2943
3512	2391
3513	1754
3514	1304
3515	834
3516	287
3517	-7
3518	-129
3519	-211
3520	-192
3521	-110
3522	-40
3523	-47
3524	-51
3525	0
3526	376
3527	951
3528	1491
3529	1912
3530	2068
3531	1883
3532	1295
3533	526
3534	-253
3535	-1034
3536	-1664
3537	-2055
3538	-2277
3539	-2242
3540	-1909
3541	-1426
3542	-798
3543	-68
3544	566
3545	1067
3546	1471
3547	1737
3548	1649
3549	1847
3550	2104
3551	2114
3552	1851
3553	1092
3554	-114
3555	-1471
3556	-2560
3557	-3437
3558	-3784
3559	-4006
3560	-3900
3561	-3892
3562	-4361
3563	-4959
3564	-5838
3565	-6188
3566	-5870
3567	-4207
3568	-855
3569	4303
3570	10882
3571	17940
3572	24999
3573	31441
3574	35773
3575	36950
3576	34975
3577	29654
3578	21262
3579	11654
3580	2998
3581	-3339
3582	-6697
3583	-7194
3584	-5749
3585	-3633
3586	-1720
3587	-304
3588	453
3589	740
3590	908
3591	1341
3592	1757
3593	2007
3594	2524
3595	2989
3596	2944
3597	2703
3598	2542
3599	2271
3600	2063
3601	2316
3602	2819
3603	3202
3604	3579
3605	4110
3606	4836
3607	5702
3608	6906
3609	8361
3610	9783
3611	11146
3612	12184
3613	13218
3614	14270
3615	15318
3616	16183
3617	17105
3618	17836
3619	18432
3620	19291
3621	20403
3622	21733
3623	23390
3624	25111
3625	26544
3626	27670
3627	28808
3628	29790
3629	30698
3630	31496
3631	32109
3632	32246
3633	31709
3634	30676
3635	29374
3636	27815
3637	25994
3638	24005
3639	21912
3640	19729
3641	17455
3642	15136
3643	12975
3644	11078
3645	9236
3646	7372
3647	5629
3648	3891
3649	2039
3650	341
3651	-866
3652	-1544
3653	-1442
3654	-890
3655	-161
3656	811
3657	1495
3658	1796
3659	1959
3660	2047
3661	1963
3662	1905
3663	1989
3664	2001
3665	1959
3666	1937
3667	1700
3668	1283
3669	857
3670	269
3671	-427
3672	-949
3673	-1314
3674	-1570
3675	-1547
3676	-1243
3677	-908
3678	-625
3679	-272
3680	289
3681	969
3682	1659
3683	2501
3684	3030
3685	3090
3686	2617
3687	1860
3688	836
3689	-305
3690	-1160
3691	-1801
3692	-2325
3693	-2647
3694	-2870
3695	-3035
3696	-3039
3697	-3042
3698	-2911
3699	-3321
3700	-3731
3701	-3940
3702	-3869
3703	-3466
3704	-2665
3705	-1738
3706	-1042
3707	-638
3708	-454
3709	-302
3710	14
3711	512
3712	1158
3713	1804
3714	2141
3715	1996
3716	1421
3717	576
3718	-367
3719	-1318
3720	-2152
3721	-2702
3722	-2987
3723	-3135
3724	-3180
3725	-3149
3726	-3101
3727	-3114
3728	-3158
3729	-3021
3730	-2782
3731	-2790
3732	-3008
3733	-3389
3734	-4173
3735	-5116
3736	-5780
3737	-6126
3738	-5868
3739	-4485
3740	-1696
3741	2858
3742	9242
3743	16805
3744	24869
3745	32520
3746	38137
3747	40537
3748	39369
3749	34450
3750	26356
3751	16911
3752	8229
3753	1732
3754	-1972
3755	-3071
3756	-2642
3757	-1865
3758	-1232
3759	-833
3760	-504
3761	0
3762	574
3763	1040
3764	1250
3765	977
3766	514
3767	350
3768	313
3769	462
3770	1217
3771	2186
3772	2941
3773	3675
3774	4252
3775	4127
3776	4052
3777	3977
3778	3952
3779	4101
3780	4414
3781	5094
3782	6061
3783	7055
3784	8161
3785	9383
3786	10404
3787	11284
3788	12255
3789	13339
3790	14654
3791	16285
3792	18122
3793	20016
3794	21834
3795	23502
3796	24903
3797	26001
3798	26931
3799	27634
3800	27948
3801	27897
3802	27502
3803	26768
3804	25879
3805	25062
3806	24314
3807	23528
3808	22691
3809	21693
3810	20429
3811	18994
3812	17382
3813	15468
3814	13377
3815	11297
3816	9236
3817	7412
3818	6156
3819	5292
3820	4421
3821	3448
3822	2327
3823	2304
3824	786
3825	-417
3826	-1249
3827	-1649
3828	-1771
3829	-1834
3830	-1762
3831	-1596
3832	-1426
3833	-1117
3834	-821
3835	-472
3836	28
3837	764
3838	1698
3839	2704
3840	3444
3841	3871
3842	3732
3843	3100
3844	2152
3845	1492
3846	1239
3847	1393
3848	1876
3849	2288
3850	2456
3851	2211
3852	1630
3853	906
3854	261
3855	-187
3856	-371
3857	-365
3858	-227
3859	-52
3860	0
3861	-68
3862	-162
3863	-178
3864	-15
3865	275
3866	538
3867	631
3868	523
3869	306
3870	134
3871	222
3872	542
3873	668
3874	326
3875	-331
3876	-1170
3877	-2120
3878	-2804
3879	-2953
3880	-2786
3881	-2419
3882	-1746
3883	-876
3884	-32
3885	666
3886	1004
3887	1040
3888	891
3889	896
3890	1109
3891	1370
3892	1607
3893	1529
3894	961
3895	263
3896	-288
3897	-726
3898	-1181
3899	-1471
3900	-2085
3901	-2981
3902	-3617
3903	-3946
3904	-3925
3905	-3380
3906	-2917
3907	-2696
3908	-2749
3909	-3112
3910	-3624
3911	-4125
3912	-4070
3913	-3155
3914	-1170
3915	2419
3916	7422
3917	13300
3918	19935
3919	26757
3920	32636
3921	36442
3922	37896
3923	36229
3924	30837
3925	22867
3926	13843
3927	5775
3928	199
3929	-2510
3930	-2701
3931	-1653
3932	-535
3933	0
3934	-135
3935	-554
3936	-820
3937	-768
3938	-568
3939	-740
3940	-908
3941	-1322
3942	-1881
3943	-2273
3944	-2153
3945	-1630
3946	-939
3947	0
3948	1351
3949	1779
3950	1990
3951	2394
3952	2976
3953	3912
3954	5319
3955	6909
3956	8377
3957	9617
3958	10513
3959	11049
3960	11290
3961	11260
3962	11271
3963	11561
3964	12231
3965	13369
3966	14850
3967	16571
3968	18220
3969	19842
3970	21396
3971	22755
3972	23928
3973	25063
3974	26215
3975	27251
3976	27975
3977	28527
3978	28894
3979	28792
3980	28251
3981	27621
3982	26866
3983	25551
3984	23875
3985	21945
3986	19666
3987	17263
3988	14896
3989	12744
3990	10763
3991	8850
3992	7112
3993	5579
3994	4077
3995	2662
3996	1470
3997	544
3998	63
3999	155
4000	601
4001	1210
4002	1950
4003	2177
4004	1933
4005	1618
4006	1295
4007	871
4008	766
4009	893
4010	1139
4011	1410
4012	1540
4013	1377
4014	1129
4015	777
4016	499
4017	487
4018	718
4019	1086
4020	1435
4021	1686
4022	1792
4023	1593
4024	1131
4025	715
4026	377
4027	-20
4028	-218
4029	-145
4030	8
4031	68
4032	278
4033	617
4034	946
4035	1185
4036	1317
4037	1319
4038	869
4039	125
4040	-631
4041	-1342
4042	-2011
4043	-2431
4044	-2478
4045	-2153
4046	-1616
4047	-984
4048	-299
4049	84
4050	37
4051	-317
4052	-792
4053	-943
4054	-551
4055	133
4056	816
4057	1622
4058	2023
4059	1816
4060	1465
4061	1191
4062	623
4063	-229
4064	-980
4065	-1733
4066	-2537
4067	-2957
4068	-2636
4069	-2259
4070	-1956
4071	-1469
4072	-1074
4073	-897
4074	-752
4075	-635
4076	-724
4077	-1127
4078	-1677
4079	-2176
4080	-2676
4081	-3142
4082	-3518
4083	-4031
4084	-4655
4085	-4796
4086	-3870
4087	-1352
4088	3363
4089	10096
4090	17781
4091	25565
4092	32476
4093	36936
4094	38033
4095	35694
4096	29850
4097	21185
4098	11639
4099	3325
4100	-2378
4101	-5022
4102	-5059
4103	-3579
4104	-1843
4105	-767
4106	-385
4107	-181
4108	-65
4109	-35
4110	335
4111	983
4112	1461
4113	1918
4114	2446
4115	2796
4116	2807
4117	2908
4118	3448
4119	4097
4120	4839
4121	5736
4122	6550
4123	6922
4124	6831
4125	6654
4126	6622
4127	6852
4128	7331
4129	7992
4130	8837
4131	9736
4132	10556
4133	11550
4134	12882
4135	14375
4136	15983
4137	17834
4138	19768
4139	21598
4140	23170
4141	24454
4142	25463
4143	26259
4144	27074
4145	28066
4146	29074
4147	29963
4148	30635
4149	30889
4150	30695
4151	30277
4152	29714
4153	28881
4154	27800
4155	26436
4156	24632
4157	22545
4158	20245
4159	17662
4160	15045
4161	12459
4162	9930
4163	7939
4164	6626
4165	5703
4166	5144
4167	4798
4168	4181
4169	3215
4170	2195
4171	1261
4172	525
4173	113
4174	0
4175	47
4176	-40
4177	-249
4178	-643
4179	-1156
4180	-1524
4181	-1679
4182	-1650
4183	-1349
4184	-937
4185	-649
4186	-399
4187	-120
4188	26
4189	151
4190	437
4191	690
4192	800
4193	942
4194	1140
4195	1293
4196	1457
4197	1705
4198	2184
4199	2234
4200	2121
4201	1982
4202	1435
4203	774
4204	123
4205	-361
4206	-594
4207	-674
4208	-704
4209	-680
4210	-749
4211	-1073
4212	-1483
4213	-1805
4214	-1973
4215	-1938
4216	-1753
4217	-1479
4218	-1053
4219	-1006
4220	-1152
4221	-1134
4222	-1106
4223	-1107
4224	-872
4225	-683
4226	-637
4227	-618
4228	-590
4229	-606
4230	-544
4231	-383
4232	-258
4233	-78
4234	281
4235	704
4236	1099
4237	1543
4238	1868
4239	1635
4240	911
4241	73
4242	-907
4243	-1749
4244	-1818
4245	-1242
4246	-508
4247	262
4248	875
4249	1016
4250	725
4251	316
4252	-151
4253	-831
4254	-1567
4255	-2119
4256	-2579
4257	-2926
4258	-2991
4259	-2959
4260	-3107
4261	-3541
4262	-3961
4263	-4013
4264	-3133
4265	-774
4266	3711
4267	10144
4268	17767
4269	25905
4270	33422
4271	38691
4272	40518
4273	38560
4274	32805
4275	23953
4276	14005
4277	4703
4278	-1649
4279	-4890
4280	-5447
4281	-4322
4282	-2862
4283	-1848
4284	-1377
4285	-1264
4286	-1374
4287	-1460
4288	-1324
4289	-970
4290	-330
4291	538
4292	1291
4293	1766
4294	1915
4295	1784
4296	1673
4297	1874
4298	2495
4299	3368
4300	4229
4301	4932
4302	5395
4303	5470
4304	5201
4305	4876
4306	4793
4307	5069
4308	5664
4309	6587
4310	7808
4311	9062
4312	10237
4313	11590
4314	13119
4315	14932
4316	16891
4317	18438
4318	20215
4319	21880
4320	23129
4321	24054
4322	24838
4323	25678
4324	25615
4325	25595
4326	25647
4327	25784
4328	26145
4329	26545
4330	26644
4331	26341
4332	25581
4333	24518
4334	23633
4335	22318
4336	21064
4337	19504
4338	17652
4339	15637
4340	13379
4341	11170
4342	9162
4343	7373
4344	5698
4345	4159
4346	2716
4347	1341
4348	202
4349	-514
4350	-762
4351	-714
4352	-610
4353	-300
4354	163
4355	603
4356	1233
4357	1995
4358	2732
4359	3307
4360	3372
4361	2903
4362	2162
4363	1171
4364	177
4365	-519
4366	-871
4367	-660
4368	-225
4369	62
4370	501
4371	949
4372	1123
4373	1117
4374	1387
4375	1848
4376	2442
4377	2981
4378	3343
4379	3427
4380	3165
4381	2738
4382	2473
4383	2369
4384	2228
4385	1948
4386	1432
4387	723
4388	0
4389	-660
4390	-1138
4391	-1505
4392	-2039
4393	-2510
4394	-2798
4395	-2945
4396	-2831
4397	-2256
4398	-1608
4399	-1048
4400	-676
4401	-372
4402	-127
4403	151
4404	389
4405	647
4406	638
4407	361
4408	-123
4409	-822
4410	-1416
4411	-1523
4412	-1429
4413	-1249
4414	-1009
4415	-883
4416	-989
4417	-1066
4418	-860
4419	-361
4420	415
4421	1077
4422	1531
4423	1537
4424	1206
4425	754
4426	289
4427	-195
4428	-756
4429	-1179
4430	-1890
4431	-2532
4432	-2856
4433	-3041
4434	-3108
4435	-2809
4436	-2667
4437	-2908
4438	-3406
4439	-4085
4440	-4804
4441	-5607
4442	-6223
4443	-6457
4444	-6080
4445	-4406
4446	-811
4447	4795
4448	11762
4449	19472
4450	27346
4451	34221
4452	38768
4453	40298
4454	38359
4455	32598
4456	23759
4457	13895
4458	5263
4459	-685
4460	-3470
4461	-3501
4462	-2027
4463	-449
4464	459
4465	651
4466	522
4467	335
4468	136
4469	51
4470	70
4471	-23
4472	-183
4473	-105
4474	210
4475	581
4476	1137
4477	1863
4478	2407
4479	2740
4480	3036
4481	3288
4482	3530
4483	3884
4484	4404
4485	5075
4486	5980
4487	7125
4488	8265
4489	9258
4490	10111
4491	10718
4492	11050
4493	11389
4494	12018
4495	12897
4496	13958
4497	15350
4498	17076
4499	18882
4500	20541
4501	22256
4502	23788
4503	24870
4504	25630
4505	26279
4506	26701
4507	27058
4508	27673
4509	28230
4510	28704
4511	28977
4512	28955
4513	28381
4514	27330
4515	25571
4516	23194
4517	20601
4518	18021
4519	15470
4520	13046
4521	10904
4522	8992
4523	7215
4524	5725
4525	4705
4526	3967
4527	3280
4528	2707
4529	2203
4530	1593
4531	955
4532	564
4533	444
4534	366
4535	462
4536	647
4537	725
4538	686
4539	811
4540	956
4541	868
4542	631
4543	323
4544	-77
4545	-372
4546	-254
4547	288
4548	1115
4549	1841
4550	2262
4551	2347
4552	2062
4553	1657
4554	1502
4555	1577
4556	1703
4557	1834
4558	1774
4559	1354
4560	744
4561	141
4562	-385
4563	-826
4564	-1014
4565	-1129
4566	-1430
4567	-1876
4568	-2196
4569	-2500
4570	-2729
4571	-2501
4572	-1847
4573	-1202
4574	-527
4575	116
4576	559
4577	538
4578	178
4579	-288
4580	-764
4581	-1234
4582	-1537
4583	-1519
4584	-1311
4585	-1146
4586	-1028
4587	-914
4588	-1060
4589	-1517
4590	-1816
4591	-1814
4592	-1718
4593	-1256
4594	-318
4595	583
4596	1301
4597	1944
4598	2262
4599	2120
4600	1654
4601	906
4602	-110
4603	-1189
4604	-2020
4605	-2403
4606	-2203
4607	-1396
4608	-262
4609	778
4610	1471
4611	1806
4612	1784
4613	1407
4614	992
4615	682
4616	103
4617	-751
4618	-1583
4619	-2478
4620	-3327
4621	-3747
4622	-3568
4623	-2459
4624	50
4625	4235
4626	10147
4627	17287
4628	24830
4629	31902
4630	37141
4631	39269
4632	37940
4633	33303
4634	25827
4635	16816
4636	8338
4637	2073
4638	-1465
4639	-2649
4640	-1760
4641	-184
4642	1198
4643	2100
4644	2593
4645	2754
4646	2872
4647	2623
4648	2538
4649	2646
4650	2776
4651	2960
4652	3437
4653	3957
4654	4452
4655	4907
4656	5180
4657	5264
4658	5439
4659	5611
4660	5633
4661	5679
4662	5957
4663	6334
4664	6770
4665	7611
4666	8640
4667	9508
4668	10489
4669	11669
4670	12776
4671	14142
4672	15634
4673	17012
4674	17817
4675	18685
4676	19589
4677	20426
4678	21498
4679	22926
4680	24430
4681	25793
4682	26970
4683	27816
4684	28290
4685	28465
4686	28408
4687	28273
4688	28165
4689	27945
4690	27538
4691	27053
4692	26283
4693	25003
4694	23431
4695	21550
4696	19220
4697	16793
4698	15121
4699	12989
4700	11150
4701	9622
4702	8319
4703	7156
4704	5909
4705	4548
4706	3183
4707	1805
4708	584
4709	-247
4710	-660
4711	-701
4712	-586
4713	-575
4714	-331
4715	-45
4716	-159
4717	-202
4718	204
4719	892
4720	1306
4721	1664
4722	1932
4723	1831
4724	1333
4725	1054
4726	1111
4727	1402
4728	2006
4729	2734
4730	3335
4731	3763
4732	3892
4733	3656
4734	3312
4735	2939
4736	2483
4737	2219
4738	2207
4739	2164
4740	2129
4741	2047
4742	1489
4743	689
4744	176
4745	-223
4746	-362
4747	-98
4748	284
4749	461
4750	362
4751	119
4752	0
4753	79
4754	151
4755	73
4756	-192
4757	-716
4758	-1192
4759	-1017
4760	-149
4761	989
4762	2199
4763	2947
4764	3111
4765	2956
4766	2659
4767	2445
4768	2306
4769	2127
4770	1888
4771	1718
4772	1870
4773	2230
4774	2494
4775	2315
4776	1635
4777	306
4778	-1735
4779	-3566
4780	-4906
4781	-6005
4782	-6131
4783	-5844
4784	-5305
4785	-4880
4786	-4746
4787	-4587
4788	-4246
4789	-3504
4790	-1888
4791	1081
4792	5627
4793	11500
4794	17977
4795	24499
4796	30116
4797	33486
4798	33713
4799	30618
4800	24338
4801	15669
4802	6248
4803	-1797
4804	-6853
4805	-8878
4806	-8211
4807	-5920
4808	-3276
4809	-1491
4810	-537
4811	-184
4812	-345
4813	-621
4814	-761
4815	-949
4816	-1086
4817	-850
4818	-407
4819	12
4820	454
4821	714
4822	612
4823	1527
4824	1640
4825	2024
4826	2745
4827	3604
4828	4502
4829	5147
4830	5532
4831	6009
4832	6683
4833	7378
4834	8159
4835	9160
4836	10139
4837	10896
4838	11700
4839	12826
4840	14209
4841	15878
4842	17890
4843	20059
4844	22165
4845	23922
4846	25107
4847	25861
4848	26207
4849	26189
4850	26160
4851	26256
4852	26437
4853	26934
4854	27429
4855	27603
4856	27345
4857	26552
4858	25376
4859	24050
4860	22626
4861	21350
4862	20113
4863	18581
4864	16584
4865	14295
4866	11899
4867	9486
4868	7313
4869	5540
4870	4159
4871	2695
4872	1366
4873	386
4874	-243
4875	-439
4876	-348
4877	-68
4878	206
4879	547
4880	886
4881	1177
4882	1527
4883	1835
4884	1901
4885	1846
4886	1721
4887	1482
4888	1328
4889	1283
4890	1204
4891	1257
4892	1411
4893	1360
4894	1325
4895	1315
4896	1057
4897	677
4898	641
4899	783
4900	1060
4901	1360
4902	1626
4903	1708
4904	1494
4905	1162
4906	967
4907	766
4908	143
4909	-430
4910	-1155
4911	-1827
4912	-2488
4913	-2675
4914	-2541
4915	-2367
4916	-2153
4917	-1943
4918	-1807
4919	-1607
4920	-1409
4921	-1093
4922	-722
4923	-369
4924	-108
4925	237
4926	533
4927	676
4928	751
4929	615
4930	218
4931	-406
4932	-1097
4933	-1775
4934	-2206
4935	-2379
4936	-2493
4937	-2578
4938	-2745
4939	-3193
4940	-3864
4941	-4423
4942	-4666
4943	-4645
4944	-4507
4945	-4289
4946	-4186
4947	-4164
4948	-3826
4949	-2518
4950	154
4951	4577
4952	10323
4953	16606
4954	22947
4955	28408
4956	31697
4957	32269
4958	30060
4959	24948
4960	17382
4961	8804
4962	1013
4963	-4664
4964	-7569
4965	-7761
4966	-6083
4967	-3630
4968	-1416
4969	-129
4970	351
4971	426
4972	279
4973	-48
4974	-213
4975	-63
4976	368
4977	992
4978	1790
4979	2426
4980	2803
4981	2939
4982	2848
4983	2730
4984	2857
4985	3105
4986	3354
4987	3736
4988	4201
4989	4719
4990	5448
4991	6312
4992	7179
4993	8079
4994	8852
4995	9485
4996	10282
4997	11145
4998	11994
4999	13142
5000	14423
5001	15632
5002	16909
5003	18420
5004	19865
5005	21300
5006	22726
5007	24026
5008	25115
5009	26077
5010	26872
5011	27328
5012	27479
5013	27289
5014	26726
5015	25668
5016	24395
5017	22908
5018	21176
5019	19334
5020	17483
5021	15485
5022	13516
5023	11783
5024	10141
5025	8551
5026	7052
5027	5546
5028	4176
5029	3168
5030	2477
5031	2066
5032	1759
5033	1346
5034	600
5035	-351
5036	-1387
5037	-2242
5038	-2635
5039	-2592
5040	-2187
5041	-1500
5042	-740
5043	-89
5044	324
5045	468
5046	518
5047	468
5048	319
5049	337
5050	598
5051	949
5052	1191
5053	1213
5054	964
5055	317
5056	-628
5057	-1439
5058	-2003
5059	-2292
5060	-2390
5061	-2354
5062	-2343
5063	-2356
5064	-2307
5065	-2147
5066	-1768
5067	-1273
5068	-899
5069	-610
5070	-411
5071	-409
5072	-439
5073	-238
5074	0
5075	158
5076	345
5077	420
5078	210
5079	-94
5080	-384
5081	-828
5082	-1365
5083	-1914
5084	-2649
5085	-3496
5086	-4245
5087	-4933
5088	-5487
5089	-5669
5090	-5380
5091	-4660
5092	-3607
5093	-2312
5094	-1082
5095	-478
5096	-605
5097	-1057
5098	-1682
5099	-2208
5100	-1947
5101	-679
5102	1567
5103	4967
5104	9190
5105	13728
5106	18384
5107	22447
5108	24884
5109	25177
5110	23140
5111	18926
5112	13210
5113	7090
5114	2115
5115	-739
5116	-1729
5117	-1257
5118	182
5119	1427
5120	1737
5121	1385
5122	646
5123	-381
5124	-1176
5125	-1355
5126	-1157
5127	-844
5128	-397
5129	0
5130	207
5131	333
5132	635
5133	1036
5134	1752
5135	2694
5136	3826
5137	5036
5138	6029
5139	6716
5140	7102
5141	7004
5142	6532
5143	6071
5144	5794
5145	5728
5146	6432
5147	7810
5148	9605
5149	11402
5150	12940
5151	14187
5152	15202
5153	16084
5154	17075
5155	18246
5156	19426
5157	20596
5158	21813
5159	22967
5160	24023
5161	24903
5162	25401
5163	25293
5164	24770
5165	23835
5166	22598
5167	21368
5168	20248
5169	19013
5170	17764
5171	16498
5172	15065
5173	13612
5174	12095
5175	10309
5176	8459
5177	6706
5178	5003
5179	3677
5180	2931
5181	2404
5182	2011
5183	1890
5184	1646
5185	1049
5186	500
5187	13
5188	-817
5189	-1735
5190	-2368
5191	-2877
5192	-3347
5193	-3453
5194	-3147
5195	-2713
5196	-2205
5197	-1623
5198	-1226
5199	-1078
5200	-1100
5201	-1265
5202	-1371
5203	-1169
5204	-537
5205	390
5206	1315
5207	1931
5208	1986
5209	1404
5210	450
5211	-577
5212	-1473
5213	-2039
5214	-2328
5215	-2499
5216	-2609
5217	-2675
5218	-2626
5219	-2331
5220	-1988
5221	-1485
5222	-874
5223	-393
5224	-72
5225	154
5226	275
5227	360
5228	482
5229	576
5230	513
5231	266
5232	-194
5233	-935
5234	-1665
5235	-2047
5236	-2215
5237	-2242
5238	-2076
5239	-2082
5240	-2480
5241	-2977
5242	-3435
5243	-3794
5244	-3784
5245	-3501
5246	-3318
5247	-3174
5248	-2795
5249	-2021
5250	-574
5251	1990
5252	5866
5253	10446
5254	14901
5255	19133
5256	22748
5257	24508
5258	23909
5259	21220
5260	16410
5261	9898
5262	3319
5263	-1561
5264	-4015
5265	-4085
5266	-2472
5267	-242
5268	1706
5269	2833
5270	3080
5271	2772
5272	2409
5273	2155
5274	1966
5275	1811
5276	1709
5277	1508
5278	973
5279	274
5280	-239
5281	-532
5282	-603
5283	-304
5284	330
5285	1163
5286	2157
5287	3209
5288	4142
5289	4982
5290	5828
5291	6777
5292	7906
5293	9053
5294	9937
5295	10478
5296	10583
5297	10362
5298	10330
5299	10783
5300	11706
5301	13094
5302	14670
5303	15994
5304	17034
5305	17940
5306	18794
5307	19834
5308	21176
5309	22626
5310	24012
5311	25064
5312	25534
5313	25552
5314	25210
5315	24449
5316	23392
5317	22115
5318	20556
5319	18687
5320	16589
5321	14465
5322	12512
5323	10821
5324	9377
5325	8153
5326	7113
5327	6036
5328	4903
5329	3583
5330	2440
5331	1322
5332	304
5333	-358
5334	-628
5335	-777
5336	-823
5337	-633
5338	-276
5339	0
5340	214
5341	398
5342	482
5343	445
5344	399
5345	277
5346	125
5347	88
5348	68
5349	121
5350	504
5351	1015
5352	1396
5353	1895
5354	2177
5355	1932
5356	1552
5357	1372
5358	1168
5359	1378
5360	1991
5361	2300
5362	2215
5363	2002
5364	1495
5365	709
5366	-25
5367	-570
5368	-1028
5369	-1456
5370	-1675
5371	-1547
5372	-1075
5373	-266
5374	767
5375	1867
5376	2765
5377	3107
5378	2854
5379	2148
5380	1077
5381	-53
5382	-798
5383	-1033
5384	-871
5385	-461
5386	-104
5387	-52
5388	-201
5389	-586
5390	-955
5391	-1055
5392	-918
5393	-729
5394	-657
5395	-873
5396	-1336
5397	-1943
5398	-2669
5399	-3397
5400	-3945
5401	-3980
5402	-3273
5403	-1235
5404	2645
5405	7878
5406	14146
5407	20851
5408	26989
5409	30982
5410	32169
5411	30504
5412	25737
5413	18347
5414	10026
5415	2668
5416	-2580
5417	-5385
5418	-5827
5419	-4623
5420	-3024
5421	-1860
5422	-840
5423	27
5424	609
5425	887
5426	1182
5427	1194
5428	1237
5429	1240
5430	1306
5431	1376
5432	1433
5433	1583
5434	1591
5435	1457
5436	1481
5437	1625
5438	1683
5439	1876
5440	2396
5441	3002
5442	3655
5443	4707
5444	6052
5445	7191
5446	8005
5447	8789
5448	9519
5449	10265
5450	11201
5451	12472
5452	13913
5453	15143
5454	16060
5455	16849
5456	17503
5457	17891
5458	18615
5459	19777
5460	21233
5461	22847
5462	24415
5463	25449
5464	25882
5465	25918
5466	25428
5467	24854
5468	24221
5469	23618
5470	22784
5471	21726
5472	20506
5473	18974
5474	17131
5475	15174
5476	13040
5477	10568
5478	8054
5479	5842
5480	3938
5481	2504
5482	1707
5483	1158
5484	816
5485	811
5486	828
5487	1056
5488	1338
5489	1529
5490	1612
5491	1702
5492	1774
5493	1810
5494	1901
5495	1920
5496	1778
5497	1411
5498	1013
5499	642
5500	327
5501	283
5502	552
5503	978
5504	1548
5505	2163
5506	2593
5507	2807
5508	2820
5509	2608
5510	2268
5511	1771
5512	1255
5513	865
5514	556
5515	365
5516	445
5517	683
5518	936
5519	1135
5520	1313
5521	1286
5522	976
5523	389
5524	-325
5525	-1017
5526	-1621
5527	-1997
5528	-2018
5529	-1617
5530	-961
5531	-107
5532	631
5533	1414
5534	1921
5535	1844
5536	1443
5537	761
5538	-322
5539	-1505
5540	-2348
5541	-2898
5542	-3132
5543	-2908
5544	-2562
5545	-2279
5546	-1985
5547	-1849
5548	-1967
5549	-1962
5550	-1984
5551	-2100
5552	-2085
5553	-2279
5554	-2976
5555	-3661
5556	-4120
5557	-4655
5558	-4646
5559	-3368
5560	-712
5561	3481
5562	9172
5563	15808
5564	22555
5565	28520
5566	32252
5567	33134
5568	31003
5569	25670
5570	17889
5571	9404
5572	2119
5573	-2894
5574	-4754
5575	-4218
5576	-2562
5577	-1055
5578	-357
5579	-655
5580	-1550
5581	-2121
5582	-2687
5583	-2927
5584	-2663
5585	-2205
5586	-1424
5587	-262
5588	936
5589	2009
5590	3082
5591	3789
5592	4179
5593	4375
5594	4368
5595	4245
5596	4197
5597	4128
5598	4013
5599	4044
5600	4112
5601	4143
5602	4478
5603	5272
5604	6402
5605	7884
5606	9663
5607	11439
5608	12932
5609	14096
5610	15048
5611	15974
5612	17056
5613	18276
5614	19844
5615	21446
5616	22790
5617	23788
5618	24435
5619	24700
5620	24743
5621	24751
5622	24890
5623	24803
5624	24440
5625	23625
5626	22349
5627	20833
5628	19254
5629	17596
5630	15991
5631	14554
5632	13005
5633	11387
5634	9839
5635	8423
5636	7240
5637	6255
5638	5481
5639	4804
5640	4180
5641	3465
5642	2706
5643	1930
5644	1274
5645	862
5646	557
5647	313
5648	246
5649	259
5650	244
5651	290
5652	440
5653	667
5654	958
5655	1257
5656	1526
5657	1718
5658	1774
5659	1864
5660	2169
5661	2607
5662	3065
5663	3520
5664	3602
5665	3219
5666	2555
5667	1831
5668	1138
5669	555
5670	107
5671	-322
5672	-788
5673	-1237
5674	-1533
5675	-1439
5676	-1066
5677	-738
5678	-580
5679	-740
5680	-1521
5681	-2355
5682	-2920
5683	-3092
5684	-2623
5685	-1728
5686	-972
5687	-685
5688	-829
5689	-1450
5690	-2201
5691	-2721
5692	-2850
5693	-2603
5694	-2137
5695	-1526
5696	-909
5697	-460
5698	-187
5699	-32
5700	-95
5701	-509
5702	-1017
5703	-1495
5704	-2105
5705	-2605
5706	-2806
5707	-2919
5708	-2955
5709	-2818
5710	-2621
5711	-2454
5712	-2239
5713	-1960
5714	-1774
5715	-1704
5716	-1650
5717	-1657
5718	-1819
5719	-2189
5720	-2741
5721	-3361
5722	-3876
5723	-3808
5724	-2383
5725	954
5726	6266
5727	13144
5728	20873
5729	28505
5730	34693
5731	38186
5732	38404
5733	35164
5734	28795
5735	20487
5736	12081
5737	5384
5738	1294
5739	-272
5740	0
5741	975
5742	1664
5743	1758
5744	1441
5745	1006
5746	723
5747	683
5748	678
5749	579
5750	507
5751	521
5752	689
5753	1248
5754	2324
5755	3744
5756	5195
5757	6435
5758	7257
5759	7470
5760	7257
5761	7002
5762	7042
5763	7149
5764	7576
5765	8094
5766	8662
5767	9238
5768	9981
5769	10779
5770	11566
5771	12439
5772	13187
5773	14257
5774	15296
5775	16705
5776	18156
5777	19345
5778	20171
5779	20882
5780	21502
5781	22008
5782	22808
5783	23740
5784	24467
5785	24973
5786	25139
5787	25135
5788	24755
5789	23952
5790	23021
5791	22039
5792	20976
5793	19903
5794	18825
5795	17670
5796	16335
5797	14866
5798	13440
5799	12070
5800	10634
5801	9131
5802	7328
5803	5168
5804	3080
5805	1283
5806	-87
5807	-784
5808	-903
5809	-695
5810	-202
5811	496
5812	1177
5813	1795
5814	2338
5815	2617
5816	2720
5817	2957
5818	3355
5819	3834
5820	4330
5821	4635
5822	4511
5823	3798
5824	2732
5825	1562
5826	528
5827	-201
5828	-584
5829	-648
5830	-436
5831	-156
5832	139
5833	474
5834	806
5835	1980
5836	1931
5837	1922
5838	1670
5839	1439
5840	1505
5841	1571
5842	1622
5843	1796
5844	1894
5845	1859
5846	1670
5847	1195
5848	621
5849	174
5850	-68
5851	105
5852	773
5853	1714
5854	2574
5855	3101
5856	3269
5857	3011
5858	2346
5859	1614
5860	951
5861	266
5862	-247
5863	-458
5864	-614
5865	-798
5866	-806
5867	-648
5868	-511
5869	-361
5870	-111
5871	53
5872	-101
5873	-442
5874	-624
5875	-654
5876	-765
5877	-924
5878	-1075
5879	-1338
5880	-1405
5881	-401
5882	2331
5883	6833
5884	12773
5885	19415
5886	25715
5887	29514
5888	32136
5889	31746
5890	28264
5891	22144
5892	13876
5893	5116
5894	-2248
5895	-6826
5896	-8465
5897	-7469
5898	-4806
5899	-2137
5900	-195
5901	606
5902	635
5903	302
5904	101
5905	384
5906	956
5907	1555
5908	2009
5909	2020
5910	1661
5911	1301
5912	1051
5913	1008
5914	1324
5915	1916
5916	2414
5917	2800
5918	3228
5919	3656
5920	4107
5921	4747
5922	5603
5923	6540
5924	7455
5925	8386
5926	9452
5927	10621
5928	11811
5929	13155
5930	14636
5931	15978
5932	17176
5933	18334
5934	19323
5935	20119
5936	20920
5937	21782
5938	22547
5939	23196
5940	23760
5941	24122
5942	24344
5943	24615
5944	24850
5945	24913
5946	24773
5947	24294
5948	24330
5949	23254
5950	21968
5951	20556
5952	19041
5953	17383
5954	15498
5955	13473
5956	11446
5957	9500
5958	7752
5959	6156
5960	4643
5961	3217
5962	1835
5963	466
5964	-357
5965	-692
5966	-810
5967	-782
5968	-661
5969	-683
5970	-648
5971	-336
5972	131
5973	859
5974	1660
5975	2313
5976	2785
5977	2843
5978	2692
5979	2411
5980	2107
5981	1767
5982	1496
5983	1353
5984	1138
5985	865
5986	776
5987	770
5988	672
5989	631
5990	710
5991	692
5992	515
5993	399
5994	292
5995	231
5996	251
5997	459
5998	815
5999	1138
6000	1241
6001	1145
6002	781
6003	115
6004	-451
6005	-854
6006	-1461
6007	-2151
6008	-2701
6009	-3170
6010	-3296
6011	-2675
6012	-1411
6013	69
6014	1320
6015	2294
6016	2716
6017	2652
6018	2307
6019	2053
6020	1731
6021	1363
6022	1004
6023	415
6024	-282
6025	-978
6026	-1730
6027	-2536
6028	-3144
6029	-3262
6030	-3009
6031	-2422
6032	-1915
6033	-1763
6034	-1932
6035	-2244
6036	-2824
6037	-3235
6038	-3539
6039	-3732
6040	-4225
6041	-4003
6042	-2659
6043	189
6044	5080
6045	11529
6046	18700
6047	25884
6048	32011
6049	35449
6050	35526
6051	32206
6052	25534
6053	16487
6054	7263
6055	76
6056	-4075
6057	-5419
6058	-4593
6059	-2759
6060	-1252
6061	-864
6062	-537
6063	-360
6064	-369
6065	-364
6066	-348
6067	-508
6068	-769
6069	-974
6070	-1056
6071	-886
6072	-476
6073	-3
6074	619
6075	1432
6076	2096
6077	2489
6078	2858
6079	3192
6080	3250
6081	3269
6082	3607
6083	4377
6084	5207
6085	6258
6086	7599
6087	8818
6088	9973
6089	11087
6090	12086
6091	13294
6092	14647
6093	15948
6094	17234
6095	18548
6096	19660
6097	20646
6098	21570
6099	22295
6100	22758
6101	23184
6102	23436
6103	23625
6104	23975
6105	24177
6106	24164
6107	23893
6108	23306
6109	22403
6110	21557
6111	20797
6112	20021
6113	19160
6114	17962
6115	16380
6116	14732
6117	13028
6118	11331
6119	9740
6120	8105
6121	6448
6122	4879
6123	3488
6124	2260
6125	1175
6126	219
6127	-568
6128	-1058
6129	-1255
6130	-1034
6131	-577
6132	15
6133	772
6134	1611
6135	2418
6136	3234
6137	3939
6138	4365
6139	4440
6140	4165
6141	3715
6142	3325
6143	2932
6144	2410
6145	1986
6146	1700
6147	1456
6148	1390
6149	1592
6150	1705
6151	1510
6152	713
6153	-418
6154	-1633
6155	-2376
6156	-2604
6157	-2155
6158	-1191
6159	-343
6160	65
6161	233
6162	323
6163	434
6164	731
6165	1174
6166	1571
6167	1593
6168	1075
6169	251
6170	-805
6171	-1873
6172	-2630
6173	-2945
6174	-2958
6175	-2706
6176	-2276
6177	-1803
6178	-1422
6179	-1108
6180	-786
6181	-622
6182	-589
6183	-511
6184	-344
6185	-257
6186	-91
6187	-2
6188	-200
6189	-544
6190	-978
6191	-1708
6192	-2261
6193	-2707
6194	-3135
6195	-3346
6196	-3491
6197	-3750
6198	-4203
6199	-5010
6200	-6113
6201	-7069
6202	-7566
6203	-7215
6204	-5405
6205	-1904
6206	3313
6207	10072
6208	17642
6209	25389
6210	32567
6211	37668
6212	39454
6213	37585
6214	32065
6215	23472
6216	13522
6217	4545
6218	-1776
6219	-4986
6220	-5442
6221	-4098
6222	-2282
6223	-1088
6224	-839
6225	-1274
6226	-1794
6227	-2154
6228	-2308
6229	-1879
6230	-982
6231	-17
6232	801
6233	1627
6234	2386
6235	2760
6236	2854
6237	2943
6238	2873
6239	2683
6240	2717
6241	2959
6242	3234
6243	3605
6244	3970
6245	4398
6246	5049
6247	5814
6248	6560
6249	7377
6250	8387
6251	9501
6252	10509
6253	11867
6254	13461
6255	14818
6256	16043
6257	17242
6258	18259
6259	19084
6260	20029
6261	21080
6262	22086
6263	22958
6264	23623
6265	23988
6266	24003
6267	23800
6268	23528
6269	23239
6270	22906
6271	22437
6272	21817
6273	21004
6274	19899
6275	18579
6276	17054
6277	15149
6278	12909
6279	10458
6280	7905
6281	5632
6282	3787
6283	2450
6284	1574
6285	1048
6286	714
6287	452
6288	171
6289	-168
6290	-536
6291	-858
6292	-1024
6293	-939
6294	-635
6295	-237
6296	183
6297	550
6298	773
6299	908
6300	1017
6301	1002
6302	874
6303	668
6304	323
6305	-14
6306	-215
6307	-433
6308	-909
6309	-1459
6310	-1988
6311	-2333
6312	-2388
6313	-1981
6314	-1186
6315	-456
6316	-54
6317	114
6318	64
6319	-135
6320	-367
6321	-579
6322	-846
6323	-1261
6324	-1824
6325	-2457
6326	-2967
6327	-3135
6328	-2927
6329	-2588
6330	-2216
6331	-2153
6332	-2476
6333	-3237
6334	-3906
6335	-4379
6336	-4463
6337	-3989
6338	-3009
6339	-1698
6340	-321
6341	781
6342	1473
6343	1697
6344	1318
6345	537
6346	-292
6347	-1108
6348	-1839
6349	-2251
6350	-2405
6351	-2570
6352	-2774
6353	-2900
6354	-2960
6355	-3011
6356	-2892
6357	-2457
6358	-2016
6359	-1858
6360	-1780
6361	-1729
6362	-1993
6363	-2463
6364	-2961
6365	-3720
6366	-4702
6367	-5478
6368	-5623
6369	-4576
6370	-1802
6371	2935
6372	9414
6373	16863
6374	24547
6375	31712
6376	36932
6377	39022
6378	37672
6379	32690
6380	24549
6381	15081
6382	6548
6383	604
6384	-2216
6385	-2426
6386	-1178
6387	242
6388	926
6389	718
6390	36
6391	-558
6392	-963
6393	-1222
6394	-1439
6395	-1527
6396	-1657
6397	-1679
6398	-1641
6399	-1531
6400	-1134
6401	-672
6402	-419
6403	379
6404	1412
6405	2353
6406	3191
6407	4026
6408	4588
6409	4941
6410	5490
6411	6158
6412	6741
6413	7288
6414	7835
6415	8240
6416	8532
6417	9016
6418	9818
6419	10814
6420	11949
6421	13104
6422	14219
6423	15280
6424	16337
6425	17448
6426	18560
6427	19669
6428	20770
6429	21757
6430	22728
6431	23896
6432	25080
6433	25887
6434	26238
6435	25973
6436	24637
6437	22412
6438	19942
6439	17351
6440	14837
6441	12807
6442	11036
6443	9332
6444	7795
6445	6334
6446	4913
6447	3696
6448	2717
6449	1860
6450	1115
6451	586
6452	239
6453	140
6454	489
6455	824
6456	957
6457	1001
6458	896
6459	928
6460	933
6461	1070
6462	1270
6463	1377
6464	1358
6465	1185
6466	939
6467	705
6468	719
6469	892
6470	888
6471	826
6472	826
6473	785
6474	919
6475	1398
6476	1898
6477	2080
6478	1998
6479	1763
6480	1373
6481	996
6482	794
6483	662
6484	524
6485	414
6486	334
6487	215
6488	142
6489	106
6490	-14
6491	-231
6492	-611
6493	-1131
6494	-1585
6495	-1932
6496	-2162
6497	-2112
6498	-1857
6499	-1590
6500	-1205
6501	-583
6502	196
6503	1051
6504	1930
6505	2701
6506	3167
6507	3397
6508	3616
6509	3710
6510	3629
6511	3435
6512	2798
6513	1647
6514	456
6515	-545
6516	-1495
6517	-2076
6518	-2134
6519	-2117
6520	-2277
6521	-2307
6522	-2136
6523	-2171
6524	-2222
6525	-2213
6526	-1754
6527	-1328
6528	-918
6529	-815
6530	-941
6531	-1237
6532	-1303
6533	-438
6534	2020
6535	6282
6536	12131
6537	18727
6538	24955
6539	30924
6540	34270
6541	34383
6542	31357
6543	24933
6544	16127
6545	6891
6546	-563
6547	-5404
6548	-7440
6549	-6743
6550	-4522
6551	-2161
6552	-391
6553	728
6554	1189
6555	1081
6556	672
6557	47
6558	-670
6559	-1152
6560	-1246
6561	-905
6562	-217
6563	537
6564	1239
6565	1854
6566	2292
6567	2597
6568	2932
6569	3389
6570	3985
6571	4740
6572	5516
6573	6053
6574	6280
6575	6366
6576	6548
6577	7054
6578	8302
6579	10145
6580	12086
6581	13685
6582	14914
6583	15763
6584	16286
6585	16769
6586	17702
6587	18782
6588	19863
6589	20866
6590	22098
6591	23126
6592	24140
6593	25218
6594	26087
6595	26915
6596	27296
6597	27337
6598	26922
6599	25993
6600	24722
6601	23506
6602	22336
6603	21178
6604	20262
6605	19256
6606	17692
6607	15770
6608	13725
6609	11419
6610	9070
6611	7049
6612	5329
6613	3739
6614	2335
6615	1282
6616	725
6617	321
6618	38
6619	121
6620	241
6621	171
6622	245
6623	559
6624	921
6625	1412
6626	2076
6627	2658
6628	2861
6629	2863
6630	2735
6631	2472
6632	2398
6633	2735
6634	3190
6635	3509
6636	3650
6637	3569
6638	3181
6639	2743
6640	2325
6641	1866
6642	1472
6643	1048
6644	528
6645	125
6646	-84
6647	-210
6648	-154
6649	0
6650	87
6651	122
6652	121
6653	-39
6654	-265
6655	-326
6656	-184
6657	-31
6658	139
6659	398
6660	498
6661	261
6662	-73
6663	-282
6664	-406
6665	-291
6666	168
6667	890
6668	1489
6669	1707
6670	1439
6671	878
6672	-37
6673	-1121
6674	-2019
6675	-2265
6676	-2155
6677	-1928
6678	-1625
6679	-1554
6680	-1790
6681	-2378
6682	-3128
6683	-3682
6684	-4254
6685	-5130
6686	-5546
6687	-5555
6688	-5282
6689	-4482
6690	-2864
6691	-406
6692	3234
6693	8378
6694	14746
6695	21640
6696	28558
6697	34131
6698	36600
6699	35736
6700	31450
6701	24050
6702	14705
6703	5472
6704	-1670
6705	-5918
6706	-7483
6707	-6798
6708	-4799
6709	-2802
6710	-1784
6711	-1074
6712	-573
6713	-233
6714	365
6715	1504
6716	2364
6717	3093
6718	3448
6719	3510
6720	3517
6721	3502
6722	3423
6723	3143
6724	2817
6725	2540
6726	2353
6727	2470
6728	3013
6729	3829
6730	5031
6731	6388
6732	7681
6733	8865
6734	9759
6735	10401
6736	11073
6737	11920
6738	13125
6739	14658
6740	16135
6741	17372
6742	18209
6743	18358
6744	18110
6745	18118
6746	18634
6747	19549
6748	21002
6749	22632
6750	23927
6751	24875
6752	25642
6753	26205
6754	26534
6755	26654
6756	26533
6757	26053
6758	25392
6759	24687
6760	23859
6761	22637
6762	20873
6763	18605
6764	15992
6765	13119
6766	10360
6767	8082
6768	6152
6769	4410
6770	2958
6771	1895
6772	1108
6773	505
6774	167
6775	23
6776	-151
6777	-237
6778	-140
6779	-128
6780	-148
6781	-52
6782	-76
6783	-134
6784	0
6785	202
6786	450
6787	589
6788	397
6789	203
6790	0
6791	-234
6792	-176
6793	304
6794	895
6795	1495
6796	1925
6797	2023
6798	1871
6799	1580
6800	1119
6801	640
6802	320
6803	-44
6804	-564
6805	-708
6806	-572
6807	-452
6808	-339
6809	-306
6810	-670
6811	-1511
6812	-2500
6813	-3403
6814	-4282
6815	-4789
6816	-4680
6817	-4047
6818	-3310
6819	-2119
6820	-765
6821	495
6822	1450
6823	2119
6824	2429
6825	2332
6826	1854
6827	1003
6828	-30
6829	-992
6830	-1759
6831	-2355
6832	-2778
6833	-2918
6834	-2933
6835	-3142
6836	-3448
6837	-3659
6838	-3886
6839	-4120
6840	-4122
6841	-3880
6842	-3706
6843	-3762
6844	-3923
6845	-4096
6846	-4183
6847	-3809
6848	-2471
6849	113
6850	4131
6851	9659
6852	16103
6853	22660
6854	28866
6855	33663
6856	35784
6857	35074
6858	31598
6859	25275
6860	17171
6861	9218
6862	2895
6863	-1072
6864	-2548
6865	-2116
6866	-923
6867	-42
6868	48
6869	-419
6870	-994
6871	-1311
6872	-1255
6873	-627
6874	317
6875	1343
6876	2318
6877	2923
6878	3015
6879	2858
6880	2488
6881	1965
6882	1704
6883	2117
6884	2845
6885	3858
6886	4859
6887	5912
6888	6466
6889	6424
6890	6304
6891	6222
6892	6102
6893	6437
6894	7439
6895	8513
6896	9723
6897	11256
6898	12742
6899	14010
6900	15184
6901	16248
6902	17110
6903	17931
6904	18832
6905	19791
6906	20965
6907	22359
6908	23713
6909	24927
6910	25874
6911	26340
6912	26280
6913	25541
6914	24344
6915	23007
6916	21567
6917	20025
6918	18738
6919	17567
6920	16033
6921	14139
6922	12117
6923	9960
6924	7845
6925	6034
6926	4669
6927	3800
6928	3104
6929	2279
6930	1430
6931	548
6932	-435
6933	-1175
6934	-1326
6935	-921
6936	-142
6937	698
6938	1278
6939	1456
6940	927
6941	-218
6942	-1218
6943	-1949
6944	-2211
6945	-1950
6946	-1313
6947	-551
6948	0
6949	169
6950	98
6951	-111
6952	-492
6953	-755
6954	-731
6955	-565
6956	-165
6957	497
6958	900
6959	1000
6960	794
6961	-122
6962	-1520
6963	-2695
6964	-3556
6965	-4086
6966	-4071
6967	-3796
6968	-3679
6969	-3703
6970	-3708
6971	-3404
6972	-2485
6973	-1090
6974	519
6975	2087
6976	3064
6977	3166
6978	2607
6979	1583
6980	293
6981	-996
6982	-2234
6983	-3394
6984	-4246
6985	-4690
6986	-4719
6987	-4193
6988	-3298
6989	-2554
6990	-2187
6991	-2088
6992	-2224
6993	-2556
6994	-2772
6995	-2774
6996	-2948
6997	-3455
6998	-4084
6999	-4636
7000	-4678
7001	-3589
7002	-1166
7003	2608
7004	7699
7005	13380
7006	18974
7007	24500
7008	29325
7009	32209
7010	32596
7011	30126
7012	24434
7013	16355
7014	7837
7015	708
7016	-3691
7017	-5290
7018	-4680
7019	-3021
7020	-1510
7021	-792
7022	-488
7023	-237
7024	88
7025	376
7026	581
7027	757
7028	521
7029	314
7030	145
7031	190
7032	273
7033	403
7034	522
7035	740
7036	1054
7037	1290
7038	1557
7039	2004
7040	2487
7041	2932
7042	3484
7043	4190
7044	4936
7045	5744
7046	6754
7047	7876
7048	8827
7049	9512
7050	10071
7051	10603
7052	11261
7053	12322
7054	13782
7055	15407
7056	17124
7057	18857
7058	20444
7059	21862
7060	23014
7061	23607
7062	23573
7063	23450
7064	23334
7065	23240
7066	23571
7067	23912
7068	23486
7069	22268
7070	20485
7071	18112
7072	15524
7073	13455
7074	11337
7075	9476
7076	7806
7077	6319
7078	5333
7079	4848
7080	4494
7081	4438
7082	3909
7083	2831
7084	1709
7085	769
7086	151
7087	0
7088	330
7089	811
7090	1290
7091	1610
7092	1737
7093	1698
7094	1249
7095	527
7096	9
7097	-354
7098	-631
7099	-546
7100	-258
7101	-157
7102	-108
7103	-94
7104	-86
7105	-58
7106	131
7107	403
7108	721
7109	930
7110	1035
7111	1147
7112	1165
7113	1017
7114	818
7115	582
7116	252
7117	-115
7118	-447
7119	-661
7120	-611
7121	-369
7122	-12
7123	625
7124	1349
7125	1756
7126	1974
7127	2142
7128	2014
7129	1666
7130	1400
7131	1056
7132	509
7133	0
7134	-439
7135	-794
7136	-931
7137	-907
7138	-884
7139	-723
7140	-608
7141	-655
7142	-929
7143	-1188
7144	-1552
7145	-2164
7146	-2829
7147	-3208
7148	-3711
7149	-4579
7150	-4718
7151	-4017
7152	-2184
7153	1398
7154	7144
7155	14357
7156	22057
7157	29643
7158	35529
7159	37965
7160	36516
7161	31314
7162	22883
7163	12918
7164	3455
7165	-3342
7166	-7300
7167	-7994
7168	-6574
7169	-4359
7170	-2282
7171	-1014
7172	-261
7173	159
7174	255
7175	122
7176	-206
7177	-731
7178	-1342
7179	-1758
7180	-1812
7181	-1612
7182	-1218
7183	-462
7184	290
7185	987
7186	1858
7187	2580
7188	3097
7189	3507
7190	3815
7191	4161
7192	4633
7193	5160
7194	5821
7195	6642
7196	7423
7197	8170
7198	9692
7199	11130
7200	12362
7201	13622
7202	15105
7203	16612
7204	18110
7205	19639
7206	21041
7207	22141
7208	23057
7209	23811
7210	24262
7211	24507
7212	24713
7213	24834
7214	24776
7215	24612
7216	24450
7217	24198
7218	23348
7219	21948
7220	20363
7221	18721
7222	17007
7223	15597
7224	14634
7225	13325
7226	11718
7227	10283
7228	8885
7229	7385
7230	5968
7231	4532
7232	3014
7233	1462
7234	276
7235	-314
7236	-357
7237	-221
7238	-14
7239	114
7240	88
7241	190
7242	734
7243	1588
7244	2542
7245	3488
7246	4098
7247	4229
7248	4062
7249	3608
7250	3087
7251	2407
7252	1825
7253	1422
7254	1385
7255	1596
7256	1800
7257	1938
7258	1891
7259	1450
7260	777
7261	230
7262	-223
7263	-567
7264	-557
7265	-300
7266	333
7267	1077
7268	1825
7269	2546
7270	2956
7271	3079
7272	3051
7273	3028
7274	3005
7275	2785
7276	2407
7277	1930
7278	1206
7279	427
7280	-251
7281	-898
7282	-1429
7283	-2064
7284	-2791
7285	-3444
7286	-4040
7287	-4437
7288	-4418
7289	-4009
7290	-3401
7291	-2960
7292	-2500
7293	-2613
7294	-3268
7295	-4089
7296	-4884
7297	-5429
7298	-4900
7299	-3067
7300	0
7301	4790
7302	10668
7303	16697
7304	22630
7305	27382
7306	29569
7307	28819
7308	25255
7309	18735
7310	10332
7311	2362
7312	-3559
7313	-6613
7314	-6835
7315	-4861
7316	-2400
7317	-877
7318	-538
7319	-1204
7320	-2425
7321	-3433
7322	-3797
7323	-3231
7324	-2477
7325	-1169
7326	0
7327	1167
7328	2070
7329	3050
7330	3491
7331	3775
7332	3733
7333	3531
7334	3294
7335	2999
7336	2738
7337	2615
7338	2715
7339	3145
7340	3966
7341	5151
7342	6480
7343	7732
7344	8885
7345	10104
7346	11156
7347	12088
7348	13091
7349	14095
7350	15043
7351	16210
7352	17657
7353	19100
7354	20368
7355	21458
7356	22079
7357	22189
7358	22071
7359	22029
7360	22052
7361	22042
7362	22172
7363	22540
7364	22779
7365	22667
7366	22339
7367	21593
7368	20081
7369	17984
7370	15853
7371	13841
7372	11860
7373	10231
7374	8954
7375	7599
7376	6108
7377	4755
7378	3658
7379	2646
7380	1842
7381	1274
7382	915
7383	582
7384	238
7385	-72
7386	-204
7387	-215
7388	165
7389	635
7390	989
7391	1174
7392	1162
7393	1005
7394	828
7395	944
7396	1280
7397	1684
7398	1991
7399	2121
7400	2151
7401	1994
7402	1713
7403	1176
7404	531
7405	0
7406	-338
7407	-571
7408	-515
7409	-191
7410	139
7411	82
7412	-337
7413	-866
7414	-1532
7415	-2045
7416	-2049
7417	-1423
7418	-501
7419	472
7420	1459
7421	2250
7422	2663
7423	2717
7424	2517
7425	1969
7426	1138
7427	265
7428	-565
7429	-1348
7430	-2151
7431	-2661
7432	-3089
7433	-3628
7434	-3998
7435	-3955
7436	-3873
7437	-3846
7438	-3844
7439	-4092
7440	-4478
7441	-4656
7442	-4521
7443	-4119
7444	-3558
7445	-3426
7446	-3567
7447	-3771
7448	-3666
7449	-2190
7450	1133
7451	6446
7452	13046
7453	19927
7454	26377
7455	31400
7456	33764
7457	33051
7458	29467
7459	23139
7460	14858
7461	6664
7462	436
7463	-3219
7464	-4264
7465	-3255
7466	-1588
7467	-373
7468	13
7469	-331
7470	-940
7471	-1523
7472	-2009
7473	-2110
7474	-2053
7475	-1828
7476	-1486
7477	-937
7478	-205
7479	661
7480	1539
7481	2378
7482	3144
7483	3764
7484	4143
7485	4315
7486	4545
7487	4845
7488	5275
7489	5898
7490	6519
7491	6943
7492	7256
7493	7493
7494	7778
7495	8475
7496	9657
7497	11151
7498	12863
7499	14530
7500	15926
7501	17157
7502	18225
7503	19097
7504	20018
7505	21013
7506	21871
7507	22421
7508	22784
7509	23005
7510	22945
7511	22764
7512	22772
7513	22820
7514	22590
7515	22105
7516	21319
7517	20141
7518	18658
7519	17078
7520	15580
7521	14206
7522	12819
7523	11231
7524	9628
7525	7971
7526	6397
7527	5229
7528	4585
7529	4178
7530	3897
7531	3645
7532	3149
7533	2370
7534	1508
7535	682
7536	0
7537	-278
7538	-58
7539	480
7540	1180
7541	1903
7542	2458
7543	2750
7544	2726
7545	2442
7546	1921
7547	1199
7548	373
7549	-485
7550	-946
7551	-1056
7552	-787
7553	-177
7554	587
7555	1332
7556	1929
7557	2216
7558	2232
7559	2117
7560	1777
7561	1300
7562	782
7563	238
7564	-180
7565	-455
7566	-777
7567	-1078
7568	-1391
7569	-2051
7570	-2913
7571	-3509
7572	-3854
7573	-4043
7574	-3960
7575	-3528
7576	-3162
7577	-3014
7578	-2595
7579	-1792
7580	-914
7581	195
7582	1592
7583	2727
7584	3245
7585	3163
7586	2431
7587	1178
7588	-180
7589	-1328
7590	-2085
7591	-2406
7592	-2454
7593	-2470
7594	-2587
7595	-2763
7596	-2928
7597	-3013
7598	-2950
7599	-2801
7600	-2739
7601	-2959
7602	-3457
7603	-3999
7604	-4307
7605	-4003
7606	-2588
7607	414
7608	5213
7609	11404
7610	18282
7611	25243
7612	31258
7613	34859
7614	35229
7615	32327
7616	26211
7617	17538
7618	8203
7619	347
7620	-4831
7621	-6996
7622	-6410
7623	-4135
7624	-1649
7625	62
7626	813
7627	818
7628	434
7629	0
7630	86
7631	842
7632	1740
7633	2770
7634	3739
7635	4242
7636	4009
7637	3438
7638	2951
7639	2650
7640	2716
7641	3179
7642	3932
7643	4531
7644	4922
7645	4915
7646	4674
7647	4574
7648	4782
7649	5648
7650	7004
7651	8874
7652	10738
7653	12197
7654	13485
7655	14720
7656	15648
7657	16437
7658	17307
7659	17914
7660	18220
7661	18799
7662	19752
7663	20709
7664	21722
7665	22754
7666	23286
7667	23300
7668	23285
7669	23313
7670	23193
7671	23015
7672	22814
7673	22304
7674	21318
7675	20227
7676	18777
7677	17004
7678	15002
7679	13013
7680	11112
7681	9479
7682	8290
7683	7348
7684	6363
7685	5284
7686	4156
7687	2915
7688	1497
7689	162
7690	-841
7691	-1652
7692	-2248
7693	-2308
7694	-1864
7695	-1267
7696	-636
7697	83
7698	1657
7699	2400
7700	2899
7701	3252
7702	3298
7703	3009
7704	2400
7705	1592
7706	1017
7707	914
7708	1173
7709	1701
7710	2213
7711	2365
7712	2145
7713	1533
7714	693
7715	-36
7716	-394
7717	-566
7718	-529
7719	-95
7720	311
7721	405
7722	382
7723	154
7724	-457
7725	-1053
7726	-1324
7727	-1425
7728	-1361
7729	-1076
7730	-823
7731	-775
7732	-833
7733	-838
7734	-575
7735	0
7736	697
7737	1452
7738	2119
7739	2321
7740	1989
7741	1387
7742	714
7743	95
7744	-347
7745	-506
7746	-422
7747	-299
7748	-207
7749	-188
7750	-420
7751	-874
7752	-1463
7753	-2254
7754	-2996
7755	-3307
7756	-3272
7757	-3057
7758	-2701
7759	-2405
7760	-2273
7761	-2088
7762	-1342
7763	364
7764	3484
7765	8233
7766	14129
7767	20389
7768	26227
7769	31385
7770	33866
7771	33099
7772	29294
7773	22481
7774	13816
7775	5410
7776	-904
7777	-4328
7778	-4954
7779	-3554
7780	-1480
7781	138
7782	925
7783	954
7784	625
7785	393
7786	300
7787	165
7788	-6
7789	-130
7790	-210
7791	-179
7792	99
7793	579
7794	1080
7795	1524
7796	1932
7797	2330
7798	2639
7799	2802
7800	3091
7801	3551
7802	4012
7803	4686
7804	5559
7805	6271
7806	6771
7807	7354
7808	8029
7809	8796
7810	9907
7811	11389
7812	12934
7813	14409
7814	15848
7815	17123
7816	18087
7817	18743
7818	19222
7819	19589
7820	19785
7821	19921
7822	20105
7823	20464
7824	20642
7825	20951
7826	21243
7827	21214
7828	21084
7829	20696
7830	19912
7831	19022
7832	18114
7833	17004
7834	15725
7835	14474
7836	13233
7837	11803
7838	10234
7839	8728
7840	7259
7841	5832
7842	4768
7843	4017
7844	3384
7845	2837
7846	1984
7847	1098
7848	300
7849	-451
7850	-750
7851	-347
7852	152
7853	639
7854	1146
7855	1310
7856	1138
7857	1039
7858	1207
7859	1575
7860	2119
7861	2700
7862	3042
7863	2955
7864	2534
7865	2048
7866	1493
7867	1081
7868	1013
7869	1029
7870	985
7871	1056
7872	1199
7873	1214
7874	1164
7875	1122
7876	835
7877	173
7878	-663
7879	-1437
7880	-2083
7881	-2444
7882	-2359
7883	-1826
7884	-1174
7885	-532
7886	25
7887	231
7888	121
7889	-129
7890	-400
7891	-533
7892	-400
7893	-138
7894	219
7895	577
7896	832
7897	909
7898	830
7899	689
7900	467
7901	196
7902	0
7903	-163
7904	-425
7905	-873
7906	-1558
7907	-2139
7908	-2459
7909	-2412
7910	-2017
7911	-1381
7912	-741
7913	-474
7914	-684
7915	-1151
7916	-1604
7917	-2018
7918	-2394
7919	-2525
7920	-2792
7921	-3479
7922	-4374
7923	-5101
7924	-5361
7925	-4837
7926	-2943
7927	467
7928	5438
7929	11056
7930	17484
7931	24236
7932	30714
7933	35373
7934	37322
7935	35883
7936	31144
7937	23256
7938	13798
7939	5516
7940	-347
7941	-3190
7942	-3716
7943	-3066
7944	-2235
7945	-2034
7946	-2403
7947	-2746
7948	-3151
7949	-3457
7950	-3383
7951	-3031
7952	-2840
7953	-2028
7954	-1061
7955	0
7956	874
7957	1728
7958	2329
7959	2763
7960	2977
7961	3108
7962	3387
7963	3665
7964	3653
7965	3551
7966	3593
7967	3733
7968	4215
7969	5323
7970	6740
7971	8214
7972	9421
7973	10461
7974	11337
7975	12432
7976	13393
7977	14548
7978	15571
7979	16306
7980	16809
7981	17348
7982	18023
7983	18773
7984	19646
7985	20555
7986	21178
7987	21473
7988	21690
7989	22026
7990	22263
7991	22462
7992	22969
7993	22908
7994	22258
7995	21093
7996	19469
7997	17222
7998	14733
7999	12570
8000	10761
8001	9275
8002	8099
8003	7057
8004	6095
8005	5179
8006	4431
8007	4148
8008	4198
8009	4451
8010	4459
8011	4364
8012	3842
8013	3279
8014	2749
8015	2341
8016	1909
8017	1412
8018	993
8019	681
8020	497
8021	628
8022	1055
8023	1286
8024	1825
8025	2075
8026	2115
8027	2437
8028	2844
8029	3153
8030	3457
8031	3445
8032	2760
8033	1421
8034	123
8035	-1038
8036	-1975
8037	-2374
8038	-2235
8039	-1865
8040	-1365
8041	-580
8042	97
8043	610
8044	980
8045	1388
8046	1728
8047	1961
8048	2012
8049	1788
8050	948
8051	-499
8052	-1936
8053	-3305
8054	-4085
8055	-4066
8056	-3623
8057	-2639
8058	-1421
8059	-441
8060	96
8061	456
8062	600
8063	729
8064	682
8065	449
8066	218
8067	-121
8068	-760
8069	-1671
8070	-2425
8071	-3114
8072	-3651
8073	-3686
8074	-3210
8075	-2488
8076	-1861
8077	-1520
8078	-1704
8079	-2564
8080	-3676
8081	-4666
8082	-5526
8083	-5948
8084	-5565
8085	-4362
8086	-2218
8087	1232
8088	6117
8089	11970
8090	18186
8091	24566
8092	30504
8093	34583
8094	35839
8095	34006
8096	28817
8097	20791
8098	11926
8099	4447
8100	-380
8101	-2276
8102	-1868
8103	-410
8104	899
8105	1460
8106	1355
8107	1128
8108	1329
8109	1847
8110	2321
8111	2955
8112	3631
8113	3864
8114	4125
8115	4874
8116	5637
8117	6294
8118	7155
8119	8031
8120	8574
8121	8867
8122	9050
8123	9019
8124	8897
8125	8975
8126	9375
8127	10192
8128	11301
8129	12500
8130	13804
8131	15093
8132	16396
8133	18089
8134	20094
8135	21902
8136	23246
8137	24166
8138	24527
8139	24386
8140	24380
8141	24764
8142	25198
8143	25888
8144	26552
8145	26796
8146	26713
8147	26625
8148	26641
8149	26843
8150	27266
8151	27739
8152	28019
8153	27956
8154	27552
8155	26732
8156	25277
8157	23309
8158	21138
8159	18805
8160	16448
8161	14502
8162	13122
8163	12038
8164	11060
8165	10172
8166	9248
8167	8133
8168	6972
8169	6154
8170	5833
8171	5896
8172	6355
8173	6992
8174	7158
8175	6724
8176	6139
8177	5597
8178	5286
8179	5562
8180	6412
8181	7358
8182	7838
8183	7770
8184	7503
8185	7087
8186	6553
8187	6324
8188	6468
8189	6606
8190	6607
8191	6483
8192	6284
8193	6225
8194	6362
8195	6567
8196	6827
8197	4510
8198	3540
8199	2710
8200	1948
8201	1424
8202	1042
8203	1106
8204	1701
8205	2481
8206	3243
8207	4018
8208	4848
8209	5529
8210	5818
8211	5773
8212	5463
8213	4959
8214	4484
8215	4159
8216	4089
8217	4251
8218	4313
8219	4175
8220	4025
8221	3954
8222	4034
8223	4330
8224	4807
8225	5274
8226	5536
8227	5708
8228	5925
8229	6141
8230	6418
8231	6678
8232	6673
8233	6425
8234	5962
8235	5179
8236	4271
8237	3638
8238	3529
8239	4260
8240	6417
8241	10173
8242	14929
8243	20029
8244	24953
8245	28811
8246	30599
8247	29952
8248	27031
8249	21976
8250	15348
8251	8524
8252	3068
8253	0
8254	-648
8255	628
8256	3265
8257	6038
8258	7795
8259	8700
8260	9217
8261	8385
8262	8099
8263	7755
8264	7318
8265	7685
8266	8040
8267	8506
8268	9034
8269	9424
8270	9530
8271	9559
8272	9858
8273	10345
8274	11004
8275	11930
8276	12685
8277	12918
8278	12826
8279	12706
8280	12765
8281	13032
8282	13629
8283	14822
8284	16336
8285	17730
8286	19090
8287	20272
8288	20805
8289	20870
8290	21033
8291	21451
8292	22151
8293	23290
8294	24704
8295	26082
8296	27345
8297	28362
8298	29126
8299	29856
8300	30398
8301	30566
8302	30482
8303	30062
8304	29276
8305	28265
8306	26980
8307	25606
8308	24369
8309	22977
8310	21307
8311	19790
8312	18635
8313	17569
8314	16551
8315	15829
8316	15189
8317	14070
8318	12546
8319	11215
8320	10061
8321	8752
8322	333
8323	0
8324	208
8325	912
8326	2466
8327	4619
8328	6496
8329	7569
8330	7612
8331	6529
8332	4732
8333	2852
8334	1357
8335	551
8336	3146
8337	5974
8338	7714
8339	8281
8340	9083
8341	10232
8342	11531
8343	12419
8344	12575
8345	12032
8346	11035
8347	10099
8348	9787
8349	10303
8350	11288
8351	11967
8352	11834
8353	11030
8354	9767
8355	8318
8356	7479
8357	7647
8358	8388
8359	9442
8360	10653
8361	11630
8362	12232
8363	12541
8364	12636
8365	12480
8366	11947
8367	11165
8368	10241
8369	9092
8370	8016
8371	7415
8372	7201
8373	7224
8374	7507
8375	7837
8376	7861
8377	7594
8378	7336
8379	7218
8380	7411
8381	8224
8382	9486
8383	10594
8384	11263
8385	11470
8386	11015
8387	8975
8388	8875
8389	7458
8390	9326
8391	9285
8392	11730
8393	13011
8394	12548
8395	10674
8396	7792
8397	4229
8398	580
8399	-2794
8400	-5521
8401	-6931
8402	-6877
8403	-5405
8404	-2600
8405	558
8406	3086
8407	4831
8408	5590
8409	5281
8410	4523
8411	3808
8412	3212
8413	3012
8414	3373
8415	3811
8416	3809
8417	3440
8418	2849
8419	2027
8420	1393
8421	1455
8422	2047
8423	2740
8424	3473
8425	4265
8426	4798
8427	4846
8428	4711
8429	4763
8430	5041
8431	5612
8432	6754
8433	8261
8434	9345
8435	9744
8436	9756
8437	9439
8438	8911
8439	8576
8440	8613
8441	8892
8442	9250
8443	9589
8444	9906
8445	10260
8446	10761
8447	11642
8448	15821
8449	17478
8450	18812
8451	20179
8452	19809
8453	19308
8454	18164
8455	17145
8456	15923
8457	14742
8458	13273
8459	11102
8460	8676
8461	6247
8462	4491
8463	3533
8464	3774
8465	4592
8466	5121
8467	4965
8468	4027
8469	2576
8470	1068
8471	-175
8472	-556
8473	-346
8474	-1
8475	448
8476	1029
8477	1558
8478	1997
8479	2413
8480	2548
8481	2279
8482	1844
8483	1464
8484	1582
8485	2152
8486	2600
8487	2662
8488	2445
8489	1837
8490	1275
8491	1065
8492	1145
8493	1253
8494	1290
8495	1265
8496	806
8497	-108
8498	-828
8499	-1073
8500	-1069
8501	-535
8502	745
8503	2191
8504	3416
8505	4248
8506	4465
8507	4190
8508	3409
8509	2319
8510	1592
8511	1169
8512	626
8513	176
8514	-118
8515	-594
8516	-1138
8517	-1432
8518	-1652
8519	-1955
8520	-2123
8521	-2298
8522	-2506
8523	-2465
8524	-2301
8525	-2353
8526	-2735
8527	-3136
8528	-3711
8529	-4493
8530	-4975
8531	-5053
8532	-4842
8533	-3949
8534	-2225
8535	10
8536	2412
8537	5000
8538	7869
8539	10579
8540	12832
8541	14148
8542	13861
8543	11451
8544	7174
8545	2336
8546	-1627
8547	-3659
8548	-3508
8549	-2063
8550	-648
8551	106
8552	-151
8553	-1457
8554	-2762
8555	-3274
8556	-3386
8557	-3330
8558	-3016
8559	-2770
8560	-2762
8561	-2775
8562	-2638
8563	-2181
8564	-1521
8565	-1035
8566	-592
8567	-71
8568	0
8569	-383
8570	-514
8571	-389
8572	-225
8573	1742
8574	2573
8575	3284
8576	3992
8577	4582
8578	5092
8579	6091
8580	7352
8581	8530
8582	10086
8583	11396
8584	12426
8585	13081
8586	14008
8587	14945
8588	15855
8589	16756
8590	17587
8591	17602
8592	17387
8593	16886
8594	16079
8595	15479
8596	15160
8597	14973
8598	15310
8599	15471
8600	15690
8601	14967
8602	13731
8603	12039
8604	10291
8605	8432
8606	6650
8607	5374
8608	4322
8609	2987
8610	1671
8611	415
8612	-795
8613	-1555
8614	-1518
8615	-1421
8616	-1227
8617	-1138
8618	-1209
8619	-1129
8620	-718
8621	-236
8622	608
8623	1105
8624	1313
8625	1138
8626	598
8627	-23
8628	-619
8629	-980
8630	-1258
8631	-1426
8632	-1330
8633	-1220
8634	-1113
8635	-727
8636	-244
8637	177
8638	931
8639	1673
8640	2065
8641	2274
8642	2235
8643	1717
8644	841
8645	0
8646	-821
8647	-1706
8648	-2448
8649	-2856
8650	-2924
8651	-2816
8652	-2632
8653	-2346
8654	-2283
8655	-2726
8656	-3276
8657	-3644
8658	-3883
8659	-3725
8660	-3047
8661	-2202
8662	-1523
8663	-619
8664	0
8665	474
8666	577
8667	468
8668	6
8669	-1006
8670	-2376
8671	-3291
8672	-4242
8673	-4993
8674	-5204
8675	-4847
8676	-4518
8677	-4276
8678	-4036
8679	-3900
8680	-4219
8681	-4556
8682	-4937
8683	-5532
8684	-6374
8685	-7209
8686	-8089
8687	-8977
8688	-9529
8689	-9898
8690	-8883
8691	-6435
8692	-2479
8693	2835
8694	8509
8695	14217
8696	19225
8697	22494
8698	23574
8699	22552
8700	18992
8701	12921
8702	5493
8703	-1876
8704	-7660
8705	-10650
8706	-10825
8707	-9040
8708	-6468
8709	-4387
8710	-3271
8711	-3109
8712	-3278
8713	-3839
8714	-4274
8715	-4477
8716	-4579
8717	-4467
8718	-4166
8719	-3801
8720	-3260
8721	-2711
8722	-1858
8723	-1102
8724	-381
8725	413
8726	1190
8727	2008
8728	2418
8729	2540
8730	2510
8731	2592
8732	2926
8733	3483
8734	4644
8735	5799
8736	6875
8737	7947
8738	9028
8739	10184
8740	11347
8741	12725
8742	13839
8743	14880
8744	16087
8745	16964
8746	17518
8747	18087
8748	18500
8749	18581
8750	18587
8751	18911
8752	19130
8753	19534
8754	20037
8755	20773
8756	21464
8757	21716
8758	21380
8759	20521
8760	18843
8761	16715
8762	14490
8763	12236
8764	10276
8765	8818
8766	7544
8767	6399
8768	5550
8769	4748
8770	3961
8771	3540
8772	3371
8773	3131
8774	2784
8775	2248
8776	1497
8777	721
8778	0
8779	-610
8780	-950
8781	-1069
8782	-1105
8783	-831
8784	-73
8785	956
8786	1831
8787	2352
8788	2295
8789	1635
8790	916
8791	339
8792	-2
8793	-313
8794	-249
8795	-402
8796	-872
8797	-1277
8798	-1448
8799	-1587
8800	-1631
8801	-1455
8802	-1330
8803	-1371
8804	-1341
8805	-1296
8806	-1508
8807	-1965
8808	-2616
8809	-3418
8810	-3945
8811	-3839
8812	-3201
8813	-2222
8814	-1220
8815	-692
8816	-880
8817	-1431
8818	-1939
8819	-2300
8820	-2479
8821	-2413
8822	-2428
8823	-3015
8824	-3536
8825	-4109
8826	-4764
8827	-5241
8828	-5474
8829	-5588
8830	-5585
8831	-5460
8832	-5124
8833	-4695
8834	-4613
8835	-4822
8836	-5157
8837	-5916
8838	-6931
8839	-7668
8840	-8070
8841	-8250
8842	-8196
8843	-7806
8844	-6829
8845	-4850
8846	-1146
8847	4919
8848	13103
8849	22576
8850	32236
8851	40316
8852	44899
8853	44897
8854	40223
8855	31626
8856	20695
8857	9848
8858	1334
8859	-3959
8860	-6157
8861	-5934
8862	-4593
8863	-3316
8864	-2236
8865	-1480
8866	-1137
8867	-1038
8868	-1044
8869	-1490
8870	-2211
8871	-2770
8872	-3215
8873	-3141
8874	-2419
8875	-1312
8876	-180
8877	1041
8878	2069
8879	2678
8880	3069
8881	3561
8882	3873
8883	4212
8884	4854
8885	5477
8886	5949
8887	6597
8888	7529
8889	8494
8890	9545
8891	10738
8892	11703
8893	12238
8894	12595
8895	13169
8896	14128
8897	15410
8898	17064
8899	18889
8900	20433
8901	21675
8902	22675
8903	23322
8904	23768
8905	24104
8906	24060
8907	23590
8908	22919
8909	21995
8910	20740
8911	19424
8912	18179
8913	16863
8914	15517
8915	14229
8916	12910
8917	11678
8918	10815
8919	10009
8920	8993
8921	8103
8922	7076
8923	5459
8924	3577
8925	2069
8926	853
8927	-87
8928	-383
8929	-157
8930	150
8931	259
8932	157
8933	32
8934	-93
8935	-177
8936	-1
8937	337
8938	494
8939	360
8940	17
8941	-429
8942	-888
8943	-1208
8944	-1238
8945	-1164
8946	-1145
8947	-1138
8948	-1134
8949	-1087
8950	-1022
8951	-1051
8952	-1095
8953	-1023
8954	-953
8955	-914
8956	-934
8957	-1063
8958	-1520
8959	-2094
8960	-1975
8961	-2032
8962	-1855
8963	-1615
8964	-1432
8965	-1389
8966	-1734
8967	-2420
8968	-3050
8969	-3519
8970	-3915
8971	-4079
8972	-4008
8973	-3777
8974	-3238
8975	-2491
8976	-1689
8977	-665
8978	527
8979	1584
8980	2436
8981	3108
8982	3278
8983	2595
8984	1433
8985	317
8986	-759
8987	-1608
8988	-1938
8989	-2020
8990	-2171
8991	-2380
8992	-2561
8993	-2569
8994	-2326
8995	-1940
8996	-1515
8997	-1176
8998	-1078
8999	-1252
9000	-1700
9001	-2326
9002	-2920
9003	-3481
9004	-3910
9005	-3716
9006	-2504
9007	161
9008	4926
9009	11649
9010	19507
9011	27689
9012	35149
9013	39824
9014	41151
9015	38793
9016	32524
9017	23476
9018	13572
9019	4922
9020	-1249
9021	-4451
9022	-4849
9023	-3450
9024	-1999
9025	-1192
9026	-951
9027	-1036
9028	-1061
9029	-808
9030	-370
9031	405
9032	1220
9033	1609
9034	1831
9035	2323
9036	2851
9037	3253
9038	3587
9039	3782
9040	3402
9041	2670
9042	2070
9043	1361
9044	1063
9045	1148
9046	1777
9047	2597
9048	3671
9049	5239
9050	6910
9051	8468
9052	10041
9053	11474
9054	12681
9055	13734
9056	14664
9057	15594
9058	16415
9059	17029
9060	17663
9061	18182
9062	18477
9063	18979
9064	19638
9065	20120
9066	20742
9067	21524
9068	21954
9069	22123
9070	22221
9071	21995
9072	21566
9073	21788
9074	21076
9075	20365
9076	19466
9077	18473
9078	17279
9079	15907
9080	14182
9081	12100
9082	10023
9083	7951
9084	5947
9085	4322
9086	2869
9087	1325
9088	-30
9089	-760
9090	-1137
9091	-1033
9092	-514
9093	69
9094	258
9095	367
9096	518
9097	678
9098	1104
9099	1679
9100	2477
9101	2992
9102	3169
9103	3221
9104	3154
9105	2991
9106	2752
9107	2674
9108	2563
9109	2402
9110	2401
9111	2367
9112	2140
9113	1871
9114	1456
9115	822
9116	209
9117	-264
9118	-459
9119	-307
9120	-24
9121	439
9122	1103
9123	1601
9124	1846
9125	2057
9126	2073
9127	1889
9128	1708
9129	1511
9130	1122
9131	588
9132	-46
9133	-1019
9134	-2255
9135	-3260
9136	-3931
9137	-4085
9138	-3370
9139	-2005
9140	-502
9141	1029
9142	2282
9143	3094
9144	3640
9145	4006
9146	4136
9147	3812
9148	3449
9149	2662
9150	1712
9151	681
9152	247
9153	-11
9154	-302
9155	-604
9156	-935
9157	-1369
9158	-1962
9159	-2286
9160	-2348
9161	-2369
9162	-2222
9163	-2133
9164	-2224
9165	-2126
9166	-2197
9167	-2478
9168	-2555
9169	-1874
9170	-158
9171	3517
9172	8919
9173	15802
9174	22888
9175	29299
9176	33412
9177	34160
9178	31800
9179	26383
9180	18837
9181	10279
9182	2811
9183	-2490
9184	-5332
9185	-5970
9186	-5571
9187	-4047
9188	-2743
9189	-1948
9190	-1723
9191	-2119
9192	-2697
9193	-3105
9194	-3303
9195	-3230
9196	-2836
9197	-2080
9198	614
9199	1494
9200	2321
9201	3194
9202	3809
9203	4008
9204	4135
9205	4275
9206	4124
9207	4026
9208	4497
9209	5051
9210	5699
9211	6790
9212	8046
9213	9024
9214	9974
9215	10836
9216	11391
9217	11917
9218	12785
9219	13898
9220	15175
9221	16699
9222	18256
9223	19456
9224	20428
9225	21523
9226	22486
9227	23403
9228	24148
9229	24951
9230	25594
9231	26106
9232	26469
9233	26257
9234	25641
9235	24668
9236	23364
9237	22027
9238	20982
9239	19989
9240	18986
9241	17865
9242	16461
9243	14901
9244	13383
9245	11890
9246	10419
9247	8967
9248	7281
9249	5248
9250	3266
9251	1646
9252	535
9253	-77
9254	-21
9255	319
9256	678
9257	1112
9258	1420
9259	1548
9260	1689
9261	1864
9262	2117
9263	2740
9264	3802
9265	4839
9266	5549
9267	5905
9268	5529
9269	4342
9270	2996
9271	1877
9272	962
9273	494
9274	599
9275	922
9276	1328
9277	1795
9278	2015
9279	2063
9280	1812
9281	1356
9282	1059
9283	1032
9284	1024
9285	1151
9286	1113
9287	611
9288	-112
9289	-644
9290	-1025
9291	-1156
9292	-1174
9293	-1180
9294	-1469
9295	-2235
9296	-2880
9297	-3191
9298	-3213
9299	-2889
9300	-2218
9301	-1506
9302	-1215
9303	-1029
9304	-874
9305	-607
9306	-100
9307	591
9308	1222
9309	1459
9310	1337
9311	581
9312	-652
9313	-1778
9314	-2620
9315	-3199
9316	-3123
9317	-2600
9318	-2092
9319	-1814
9320	-1858
9321	-2305
9322	-3083
9323	-3878
9324	-4316
9325	-4382
9326	-4231
9327	-4086
9328	-4056
9329	-4272
9330	-4553
9331	-4247
9332	-2900
9333	-155
9334	4367
9335	10229
9336	16681
9337	23343
9338	29219
9339	32797
9340	33361
9341	30749
9342	24869
9343	16670
9344	8322
9345	1756
9346	-2159
9347	-3393
9348	-2684
9349	-1399
9350	-641
9351	-515
9352	-701
9353	-912
9354	-669
9355	105
9356	852
9357	1319
9358	1576
9359	1432
9360	995
9361	739
9362	646
9363	642
9364	1140
9365	1740
9366	2286
9367	2650
9368	3044
9369	3393
9370	3684
9371	4218
9372	5053
9373	5952
9374	7011
9375	8000
9376	8782
9377	9649
9378	10719
9379	11695
9380	12543
9381	13453
9382	14253
9383	14878
9384	15726
9385	17053
9386	18354
9387	19427
9388	20302
9389	20889
9390	21347
9391	21960
9392	22727
9393	23546
9394	24175
9395	24334
9396	24098
9397	23662
9398	23127
9399	22655
9400	22180
9401	21237
9402	19680
9403	17624
9404	14959
9405	11988
9406	9634
9407	7754
9408	6086
9409	4914
9410	3892
9411	2729
9412	1907
9413	1377
9414	901
9415	841
9416	1024
9417	929
9418	1032
9419	1361
9420	1577
9421	1731
9422	1812
9423	1700
9424	1342
9425	948
9426	502
9427	0
9428	-273
9429	-309
9430	-355
9431	-343
9432	-272
9433	-352
9434	-495
9435	-495
9436	-243
9437	306
9438	971
9439	1511
9440	1826
9441	1864
9442	1601
9443	1103
9444	523
9445	-189
9446	-970
9447	-1811
9448	-2574
9449	-2940
9450	-3075
9451	-2917
9452	-2510
9453	-2165
9454	-1977
9455	-1820
9456	-1661
9457	-1693
9458	-1872
9459	-2036
9460	-2212
9461	-2235
9462	-2029
9463	-1544
9464	-884
9465	-353
9466	-1
9467	225
9468	75
9469	-560
9470	-1397
9471	-2415
9472	-3733
9473	-4790
9474	-5071
9475	-4717
9476	-3714
9477	-2134
9478	-582
9479	605
9480	1404
9481	1753
9482	1821
9483	1776
9484	1482
9485	948
9486	417
9487	-139
9488	-747
9489	-1088
9490	-1171
9491	-1366
9492	-1618
9493	-1719
9494	-1846
9495	-1977
9496	-1814
9497	-1577
9498	-1631
9499	-1836
9500	-2209
9501	-2892
9502	-3522
9503	-3695
9504	-3142
9505	-1377
9506	2187
9507	7821
9508	14970
9509	22735
9510	30502
9511	36953
9512	40443
9513	40365
9514	36887
9515	29987
9516	20651
9517	10872
9518	2836
9519	-2285
9520	-4297
9521	-3595
9522	-1426
9523	1049
9524	2648
9525	3493
9526	3731
9527	3639
9528	3392
9529	3209
9530	3136
9531	3004
9532	2881
9533	2789
9534	2620
9535	2686
9536	2681
9537	2560
9538	2650
9539	3105
9540	3527
9541	3959
9542	4400
9543	4964
9544	5718
9545	6446
9546	7070
9547	7688
9548	8191
9549	8653
9550	9423
9551	10520
9552	11801
9553	13351
9554	15019
9555	16330
9556	17162
9557	17673
9558	17909
9559	18074
9560	18563
9561	19650
9562	21219
9563	22795
9564	24140
9565	25223
9566	25801
9567	25866
9568	25844
9569	25893
9570	25758
9571	25430
9572	25026
9573	24306
9574	23100
9575	21719
9576	19872
9577	17688
9578	15493
9579	13226
9580	11449
9581	9616
9582	8339
9583	7520
9584	6650
9585	5835
9586	5175
9587	4363
9588	3460
9589	2793
9590	2364
9591	2137
9592	2146
9593	2341
9594	2678
9595	3014
9596	3290
9597	3517
9598	3655
9599	3528
9600	3252
9601	2906
9602	2427
9603	2270
9604	2450
9605	2751
9606	3279
9607	3928
9608	4168
9609	3912
9610	3471
9611	2863
9612	2346
9613	2130
9614	2259
9615	2701
9616	3380
9617	3908
9618	4059
9619	3987
9620	3561
9621	2686
9622	1885
9623	1407
9624	1024
9625	846
9626	872
9627	694
9628	231
9629	-192
9630	-493
9631	-643
9632	-584
9633	-289
9634	14
9635	95
9636	94
9637	32
9638	-235
9639	-472
9640	-700
9641	-687
9642	-110
9643	812
9644	1680
9645	2515
9646	2956
9647	2732
9648	2168
9649	1594
9650	1151
9651	734
9652	385
9653	0
9654	-394
9655	-697
9656	-868
9657	-767
9658	-519
9659	-420
9660	-598
9661	-812
9662	-1012
9663	-1221
9664	-1266
9665	-1080
9666	-1146
9667	-1550
9668	-1857
9669	-2438
9670	-3224
9671	-3791
9672	-4373
9673	-4736
9674	-4516
9675	-3152
9676	-362
9677	4128
9678	10109
9679	16707
9680	23528
9681	29516
9682	33332
9683	34072
9684	31604
9685	25774
9686	17302
9687	8237
9688	634
9689	-4096
9690	-5737
9691	-5096
9692	-3449
9693	-1638
9694	-553
9695	-333
9696	-497
9697	-634
9698	-246
9699	-599
9700	-861
9701	-1116
9702	-1188
9703	-822
9704	63
9705	1112
9706	1996
9707	2642
9708	3073
9709	3186
9710	3342
9711	3814
9712	4696
9713	5372
9714	5941
9715	6099
9716	5916
9717	5839
9718	6068
9719	6925
9720	8269
9721	9854
9722	11490
9723	13004
9724	14425
9725	15651
9726	16618
9727	17480
9728	18275
9729	19028
9730	19820
9731	20719
9732	21613
9733	22476
9734	23267
9735	23942
9736	24547
9737	25136
9738	25569
9739	25657
9740	25545
9741	25056
9742	24290
9743	23299
9744	22038
9745	20721
9746	19073
9747	17382
9748	15593
9749	13820
9750	12072
9751	10459
9752	8863
9753	7392
9754	6128
9755	4987
9756	3799
9757	2649
9758	1646
9759	644
9760	-131
9761	-381
9762	-301
9763	-121
9764	342
9765	1063
9766	1551
9767	1867
9768	2346
9769	2714
9770	2633
9771	2382
9772	2206
9773	1780
9774	1226
9775	1010
9776	989
9777	910
9778	943
9779	1083
9780	1039
9781	840
9782	701
9783	605
9784	573
9785	883
9786	1546
9787	2171
9788	2574
9789	2748
9790	2458
9791	1707
9792	911
9793	155
9794	-565
9795	-1088
9796	-1347
9797	-1696
9798	-2142
9799	-2611
9800	-2906
9801	-3199
9802	-3001
9803	-2497
9804	-1926
9805	-1336
9806	-751
9807	-599
9808	-912
9809	-1225
9810	-1795
9811	-2713
9812	-3454
9813	-3835
9814	-4257
9815	-4358
9816	-4119
9817	-3852
9818	-3520
9819	-3085
9820	-2705
9821	-2482
9822	-2231
9823	-1836
9824	-1370
9825	-757
9826	120
9827	787
9828	959
9829	886
9830	526
9831	-179
9832	-770
9833	-1098
9834	-1493
9835	-1973
9836	-2353
9837	-2696
9838	-3013
9839	-3033
9840	-2688
9841	-2291
9842	-1989
9843	-1696
9844	-1496
9845	-1482
9846	-1579
9847	-1895
9848	-2624
9849	-3587
9850	-4506
9851	-5209
9852	-5272
9853	-4236
9854	-1947
9855	1801
9856	7182
9857	13769
9858	20965
9859	28295
9860	34612
9861	38495
9862	39262
9863	36552
9864	30270
9865	21386
9866	11901
9867	3958
9868	-1122
9869	-3097
9870	-2492
9871	-494
9872	1355
9873	2128
9874	1971
9875	1375
9876	633
9877	67
9878	-128
9879	-162
9880	-152
9881	127
9882	718
9883	1541
9884	2704
9885	4044
9886	5117
9887	6021
9888	6738
9889	7070
9890	7203
9891	7303
9892	7434
9893	7627
9894	8123
9895	8816
9896	9468
9897	9948
9898	10297
9899	10383
9900	10575
9901	10840
9902	11462
9903	12347
9904	13383
9905	14551
9906	15733
9907	16995
9908	18506
9909	20087
9910	21718
9911	23311
9912	24653
9913	25748
9914	26688
9915	27340
9916	27748
9917	28022
9918	27905
9919	27273
9920	26336
9921	25170
9922	23792
9923	22373
9924	20990
9925	19543
9926	17995
9927	16410
9928	14811
9929	13179
9930	11602
9931	10153
9932	8820
9933	7753
9934	7021
9935	6376
9936	5732
9937	5096
9938	4278
9939	3316
9940	2505
9941	2063
9942	1984
9943	2077
9944	2395
9945	3005
9946	3514
9947	2102
9948	2346
9949	2521
9950	2369
9951	2090
9952	1994
9953	2068
9954	2276
9955	2757
9956	3446
9957	4165
9958	4822
9959	5173
9960	5021
9961	4376
9962	3248
9963	1907
9964	773
9965	66
9966	-19
9967	354
9968	627
9969	694
9970	670
9971	385
9972	34
9973	117
9974	1469
9975	2747
9976	3195
9977	3553
9978	3659
9979	3483
9980	3160
9981	2796
9982	2403
9983	2071
9984	1903
9985	1919
9986	2159
9987	2526
9988	2786
9989	2899
9990	2905
9991	2735
9992	2497
9993	2453
9994	2604
9995	2865
9996	3369
9997	4166
9998	5052
9999	5880
10000	6619
10001	7076
10002	7003
10003	6501
10004	5792
10005	4879
10006	3880
10007	3036
10008	2378
10009	1929
10010	1709
10011	1686
10012	1470
10013	1487
10014	932
10015	1277
10016	1586
10017	1844
10018	2125
10019	1982
10020	1696
10021	1319
10022	812
10023	722
10024	1829
10025	4450
10026	8420
10027	13415
10028	18823
10029	23793
10030	27108
10031	27988
10032	26328
10033	22244
10034	16000
10035	8602
10036	1935
10037	-2806
10038	-5178
10039	-5102
10040	-3408
10041	-1055
10042	957
10043	2127
10044	2577
10045	2523
10046	2008
10047	1199
10048	441
10049	-89
10050	-173
10051	322
10052	1196
10053	2446
10054	3980
10055	5126
10056	5772
10057	6333
10058	6491
10059	6107
10060	5812
10061	5866
10062	6152
10063	6649
10064	7333
10065	8181
10066	8971
10067	9516
10068	10070
10069	10778
10070	11493
10071	12278
10072	13274
10073	14845
10074	16124
10075	17472
10076	18467
10077	19531
10078	20452
10079	21711
10080	23412
10081	24858
10082	26287
10083	27567
10084	28519
10085	29146
10086	29561
10087	29649
10088	29404
10089	28857
10090	27837
10091	26589
10092	25160
10093	23358
10094	21241
10095	18943
10096	16585
10097	14158
10098	11967
10099	10053
10100	8423
10101	7146
10102	6135
10103	5256
10104	4568
10105	4006
10106	3483
10107	2955
10108	2584
10109	2112
10110	1588
10111	1098
10112	720
10113	510
10114	484
10115	578
10116	774
10117	975
10118	1495
10119	1934
10120	2311
10121	2910
10122	3414
10123	3628
10124	3680
10125	3445
10126	3095
10127	2471
10128	1784
10129	1042
10130	513
10131	270
10132	214
10133	316
10134	536
10135	764
10136	906
10137	811
10138	935
10139	1072
10140	1298
10141	1475
10142	1521
10143	1367
10144	988
10145	514
10146	-117
10147	-956
10148	-1350
10149	-1407
10150	-1638
10151	-1633
10152	-1615
10153	-1952
10154	-2656
10155	-3431
10156	-3973
10157	-4046
10158	-3590
10159	-2672
10160	-1454
10161	-152
10162	917
10163	1694
10164	2028
10165	1914
10166	1308
10167	545
10168	-65
10169	-494
10170	-914
10171	-1226
10172	-1444
10173	-1893
10174	-2417
10175	-2614
10176	-2704
10177	-3033
10178	-3293
10179	-3653
10180	-4139
10181	-4510
10182	-4709
10183	-4745
10184	-4874
10185	-5344
10186	-5983
10187	-6789
10188	-7358
10189	-6786
10190	-4593
10191	57
10192	6878
10193	14941
10194	23450
10195	31203
10196	36590
10197	38441
10198	36748
10199	31514
10200	23114
10201	13346
10202	4346
10203	-2520
10204	-6551
10205	-7719
10206	-6831
10207	-5078
10208	-3380
10209	-2136
10210	-1349
10211	-795
10212	-319
10213	0
10214	191
10215	395
10216	497
10217	473
10218	562
10219	681
10220	604
10221	470
10222	358
10223	224
10224	313
10225	714
10226	1245
10227	1992
10228	2950
10229	3895
10230	4934
10231	6241
10232	7572
10233	8860
10234	10123
10235	11151
10236	11906
10237	12677
10238	13506
10239	14289
10240	15237
10241	16281
10242	17155
10243	18084
10244	19175
10245	20256
10246	21398
10247	22378
10248	23073
10249	23644
10250	24451
10251	25042
10252	25961
10253	26883
10254	27500
10255	27643
10256	27241
10257	26376
10258	25303
10259	23768
10260	21949
10261	20074
10262	18083
10263	15844
10264	13785
10265	11796
10266	9669
10267	7638
10268	5950
10269	4556
10270	3361
10271	2562
10272	2126
10273	1827
10274	1677
10275	1777
10276	1988
10277	2224
10278	2587
10279	3090
10280	3574
10281	3869
10282	3934
10283	3764
10284	3342
10285	2771
10286	2256
10287	1889
10288	1572
10289	1266
10290	1107
10291	1059
10292	1005
10293	1072
10294	1239
10295	1163
10296	996
10297	1151
10298	1131
10299	1184
10300	1395
10301	1630
10302	1669
10303	1507
10304	1188
10305	852
10306	430
10307	89
10308	-117
10309	-534
10310	-1297
10311	-2281
10312	-3421
10313	-4421
10314	-4896
10315	-4787
10316	-4196
10317	-3424
10318	-2945
10319	-2887
10320	-3004
10321	-3100
10322	-2983
10323	-2163
10324	-1111
10325	44
10326	901
10327	1256
10328	1136
10329	620
10330	-139
10331	-774
10332	-1087
10333	-1342
10334	-1796
10335	-2451
10336	-3328
10337	-4400
10338	-5381
10339	-5944
10340	-6013
10341	-5705
10342	-5148
10343	-4596
10344	-4341
10345	-4415
10346	-4683
10347	-4914
10348	-4823
10349	-4456
10350	-4165
10351	-4231
10352	-4753
10353	-5609
10354	-6256
10355	-5700
10356	-3009
10357	2195
10358	9619
10359	18411
10360	27530
10361	35620
10362	41007
10363	42585
10364	40025
10365	33449
10366	23777
10367	12923
10368	3225
10369	-3518
10370	-6708
10371	-6923
10372	-5398
10373	-3365
10374	-1737
10375	-1007
10376	-971
10377	-1007
10378	-970
10379	-1102
10380	-1283
10381	-1331
10382	-1363
10383	-1339
10384	-1130
10385	-710
10386	-298
10387	552
10388	1192
10389	1930
10390	2484
10391	3023
10392	3518
10393	4064
10394	4688
10395	5268
10396	5826
10397	6530
10398	7267
10399	8062
10400	9119
10401	10133
10402	10721
10403	11130
10404	11440
10405	11765
10406	12414
10407	13809
10408	15550
10409	17423
10410	19188
10411	20676
10412	21559
10413	22049
10414	22593
10415	23245
10416	23976
10417	24801
10418	25510
10419	25897
10420	25917
10421	25647
10422	25250
10423	24791
10424	24132
10425	23025
10426	21388
10427	19158
10428	16339
10429	13259
10430	10621
10431	8369
10432	6330
10433	4771
10434	3489
10435	2187
10436	1007
10437	255
10438	-133
10439	-312
10440	-74
10441	560
10442	1281
10443	1941
10444	2416
10445	2429
10446	1945
10447	1242
10448	980
10449	823
10450	859
10451	1033
10452	983
10453	444
10454	-405
10455	-1225
10456	-1477
10457	-1319
10458	-824
10459	-251
10460	285
10461	646
10462	728
10463	810
10464	1240
10465	1914
10466	2580
10467	3253
10468	3833
10469	3971
10470	3553
10471	2769
10472	1798
10473	667
10474	-480
10475	-1260
10476	-1686
10477	-2061
10478	-2259
10479	-2238
10480	-2286
10481	-2393
10482	-2399
10483	-2362
10484	-2356
10485	-2289
10486	-2000
10487	-1463
10488	-785
10489	-8
10490	803
10491	1408
10492	1680
10493	1772
10494	1816
10495	1828
10496	1821
10497	1846
10498	1906
10499	1791
10500	1380
10501	886
10502	348
10503	-348
10504	-954
10505	-1247
10506	-1266
10507	-1009
10508	-597
10509	-213
10510	52
10511	0
10512	-262
10513	-466
10514	-880
10515	-1204
10516	-1486
10517	-2020
10518	-2898
10519	-3632
10520	-3938
10521	-3642
10522	-1809
10523	1996
10524	6800
10525	13994
10526	21954
10527	29754
10528	35972
10529	39231
10530	39023
10531	35522
10532	28619
10533	20044
10534	11466
10535	4673
10536	214
10537	-1784
10538	-1793
10539	-832
10540	122
10541	677
10542	813
10543	689
10544	534
10545	394
10546	328
10547	447
10548	657
10549	848
10550	1020
10551	1110
10552	1190
10553	1593
10554	2442
10555	3641
10556	5256
10557	7031
10558	8309
10559	8887
10560	8972
10561	8634
10562	8075
10563	7749
10564	7893
10565	8495
10566	9482
10567	10747
10568	12137
10569	13471
10570	14722
10571	15914
10572	16143
10573	16988
10574	17929
10575	18849
10576	19515
10577	19989
10578	20613
10579	21444
10580	22262
10581	23351
10582	25429
10583	26890
10584	27709
10585	28277
10586	28458
10587	28232
10588	27858
10589	27409
10590	26710
10591	25645
10592	24279
10593	22467
10594	19961
10595	17012
10596	14009
10597	11050
10598	8394
10599	6379
10600	5126
10601	4594
10602	4418
10603	4239
10604	4062
10605	3814
10606	3336
10607	2851
10608	2649
10609	2640
10610	2575
10611	2342
10612	1958
10613	1475
10614	1058
10615	906
10616	1083
10617	1558
10618	2157
10619	2634
10620	2779
10621	2689
10622	2518
10623	2247
10624	2066
10625	2285
10626	2695
10627	2928
10628	3024
10629	2997
10630	2677
10631	1977
10632	1338
10633	1078
10634	1199
10635	1575
10636	2141
10637	2663
10638	2772
10639	2443
10640	2139
10641	1805
10642	1459
10643	1207
10644	852
10645	190
10646	-606
10647	-1226
10648	-1552
10649	-1448
10650	-884
10651	-61
10652	835
10653	1642
10654	2307
10655	2873
10656	3196
10657	3243
10658	3202
10659	2923
10660	2255
10661	1436
10662	852
10663	0
10664	-906
10665	-1116
10666	-1153
10667	-1324
10668	-1340
10669	-1338
10670	-1746
10671	-2356
10672	-2985
10673	-3838
10674	-4658
10675	-4872
10676	-4844
10677	-4604
10678	-3659
10679	-1500
10680	2176
10681	7543
10682	13937
10683	20975
10684	27586
10685	32614
10686	34781
10687	33627
10688	29171
10689	21704
10690	12530
10691	3529
10692	-3285
10693	-7756
10694	-8870
10695	-7796
10696	-5438
10697	-3345
10698	-1696
10699	-1387
10700	-804
10701	-1217
10702	-1597
10703	-1484
10704	-845
10705	72
10706	1459
10707	2694
10708	3574
10709	3951
10710	3821
10711	3271
10712	2796
10713	2627
10714	2722
10715	3095
10716	3714
10717	4454
10718	5095
10719	5507
10720	5845
10721	6246
10722	6705
10723	7323
10724	8337
10725	9833
10726	11573
10727	13320
10728	15096
10729	16879
10730	18086
10731	18932
10732	19794
10733	20693
10734	21564
10735	22570
10736	23820
10737	24853
10738	25525
10739	25836
10740	25903
10741	25697
10742	25541
10743	25427
10744	25103
10745	24506
10746	23565
10747	22040
10748	20169
10749	18143
10750	16100
10751	14135
10752	12254
10753	10765
10754	9788
10755	8870
10756	7906
10757	7013
10758	5792
10759	4212
10760	2777
10761	1635
10762	848
10763	414
10764	143
10765	24
10766	90
10767	169
10768	175
10769	319
10770	562
10771	591
10772	516
10773	676
10774	907
10775	1046
10776	1307
10777	1607
10778	1741
10779	1823
10780	1817
10781	1637
10782	1520
10783	1550
10784	1445
10785	1345
10786	1345
10787	1136
10788	629
10789	29
10790	-298
10791	-428
10792	-329
10793	0
10794	347
10795	461
10796	159
10797	-435
10798	-1003
10799	-1388
10800	-1588
10801	-1290
10802	-772
10803	-293
10804	24
10805	3
10806	-273
10807	-686
10808	-1294
10809	-1898
10810	-2318
10811	-2611
10812	-2543
10813	-2070
10814	-1237
10815	-246
10816	723
10817	1571
10818	2060
10819	1988
10820	1559
10821	909
10822	247
10823	-553
10824	-1350
10825	-1862
10826	-1904
10827	-1670
10828	-1397
10829	-1222
10830	-1506
10831	-2561
10832	-3991
10833	-5214
10834	-5947
10835	-5878
10836	-5085
10837	-4136
10838	-3328
10839	-2800
10840	-2644
10841	-2450
10842	-1563
10843	549
10844	4280
10845	9587
10846	16070
10847	23216
10848	29974
10849	34889
10850	36935
10851	35484
10852	30329
10853	22343
10854	13308
10855	5209
10856	-334
10857	-2770
10858	-2770
10859	-1504
10860	0
10861	895
10862	926
10863	743
10864	887
10865	1188
10866	1684
10867	2145
10868	2314
10869	2163
10870	2108
10871	2171
10872	2282
10873	2641
10874	3211
10875	3682
10876	3938
10877	4124
10878	4361
10879	4655
10880	5017
10881	5506
10882	6127
10883	6717
10884	7171
10885	7679
10886	8336
10887	8983
10888	9702
10889	10704
10890	11710
10891	12909
10892	14131
10893	15317
10894	16384
10895	17476
10896	18451
10897	19447
10898	20561
10899	21616
10900	22529
10901	23298
10902	24056
10903	24564
10904	24725
10905	24572
10906	24260
10907	23762
10908	23073
10909	22369
10910	21552
10911	20416
10912	19078
10913	17622
10914	16067
10915	14625
10916	13370
10917	12167
10918	10984
10919	9723
10920	8370
10921	6919
10922	5291
10923	3717
10924	2141
10925	730
10926	-423
10927	-1257
10928	-1626
10929	-1494
10930	-986
10931	-220
10932	602
10933	1302
10934	1719
10935	1931
10936	1890
10937	1508
10938	982
10939	721
10940	684
10941	767
10942	1095
10943	1458
10944	1457
10945	1051
10946	501
10947	-109
10948	-858
10949	-1484
10950	-1692
10951	-1620
10952	-1323
10953	-678
10954	0
10955	332
10956	431
10957	456
10958	471
10959	590
10960	843
10961	1732
10962	1888
10963	1429
10964	685
10965	22
10966	-607
10967	-1124
10968	-1297
10969	-1223
10970	-1314
10971	-1655
10972	-1958
10973	-2197
10974	-2440
10975	-2418
10976	-2035
10977	-1583
10978	-1168
10979	-736
10980	-322
10981	115
10982	756
10983	1650
10984	2517
10985	3097
10986	3283
10987	2840
10988	1804
10989	606
10990	-520
10991	-1390
10992	-1747
10993	-1658
10994	-1210
10995	-432
10996	328
10997	773
10998	883
10999	594
11000	-150
11001	-1156
11002	-2060
11003	-2719
11004	-3251
11005	-3603
11006	-3747
11007	-3827
11008	-3682
11009	-2922
11010	-1120
11011	2230
11012	7327
11013	13818
11014	21131
11015	28400
11016	34510
11017	37678
11018	37540
11019	33615
11020	26256
11021	17045
11022	8222
11023	1698
11024	-1950
11025	-2841
11026	-1897
11027	-507
11028	342
11029	232
11030	-494
11031	-1140
11032	-1600
11033	-1743
11034	-1221
11035	-338
11036	474
11037	1369
11038	2261
11039	2720
11040	2813
11041	2773
11042	2609
11043	2584
11044	3022
11045	3809
11046	4726
11047	5539
11048	5988
11049	6109
11050	6046
11051	5971
11052	6130
11053	6513
11054	7015
11055	7748
11056	8753
11057	9975
11058	11410
11059	12974
11060	14456
11061	15709
11062	16805
11063	17895
11064	18931
11065	19920
11066	20997
11067	21905
11068	22461
11069	22947
11070	23298
11071	23323
11072	23276
11073	23175
11074	22812
11075	22350
11076	21923
11077	21350
11078	20617
11079	19575
11080	18276
11081	16574
11082	14694
11083	12892
11084	11297
11085	10202
11086	9298
11087	8472
11088	7607
11089	6328
11090	4846
11091	3605
11092	2733
11093	2332
11094	2404
11095	2523
11096	2462
11097	2414
11098	2390
11099	2321
11100	2389
11101	2473
11102	2325
11103	1892
11104	1265
11105	673
11106	264
11107	98
11108	306
11109	797
11110	1198
11111	1710
11112	2410
11113	3158
11114	3908
11115	4314
11116	4272
11117	3766
11118	2889
11119	1885
11120	1109
11121	626
11122	339
11123	246
11124	359
11125	669
11126	902
11127	1064
11128	1167
11129	1128
11130	1096
11131	1273
11132	1679
11133	2227
11134	2707
11135	2808
11136	2439
11137	1710
11138	851
11139	-131
11140	-939
11141	-1465
11142	-1809
11143	-2060
11144	-1827
11145	-1327
11146	-927
11147	-593
11148	-385
11149	-492
11150	-866
11151	-981
11152	-958
11153	-891
11154	-894
11155	-1122
11156	-1344
11157	-1535
11158	-1612
11159	-1322
11160	-770
11161	-133
11162	700
11163	1525
11164	2058
11165	2323
11166	2299
11167	1814
11168	933
11169	8
11170	-603
11171	-1420
11172	-2045
11173	-2476
11174	-3048
11175	-3472
11176	-3557
11177	-3434
11178	-3352
11179	-3269
11180	-3286
11181	-3448
11182	-3484
11183	-3244
11184	-2815
11185	-2476
11186	-2253
11187	-2270
11188	-2092
11189	-1143
11190	1008
11191	4715
11192	9858
11193	15915
11194	22296
11195	27893
11196	31740
11197	32908
11198	30939
11199	25839
11200	18135
11201	9460
11202	2017
11203	-2764
11204	-4676
11205	-4106
11206	-2184
11207	-409
11208	463
11209	334
11210	-453
11211	-1173
11212	-1450
11213	-1319
11214	-533
11215	362
11216	1094
11217	1265
11218	1460
11219	1860
11220	2246
11221	2670
11222	3162
11223	3454
11224	3490
11225	3555
11226	3949
11227	4778
11228	5732
11229	6392
11230	6757
11231	6920
11232	6937
11233	7192
11234	7989
11235	9148
11236	10326
11237	11375
11238	12392
11239	13251
11240	13879
11241	15062
11242	16283
11243	17511
11244	18844
11245	20112
11246	21055
11247	21705
11248	22282
11249	22810
11250	23329
11251	23833
11252	24398
11253	24632
11254	24706
11255	24372
11256	23744
11257	22889
11258	21700
11259	20342
11260	19064
11261	17652
11262	16156
11263	14781
11264	13356
11265	11786
11266	10299
11267	8908
11268	7606
11269	6601
11270	5933
11271	5401
11272	4775
11273	4033
11274	3183
11275	2188
11276	1315
11277	922
11278	922
11279	1143
11280	1544
11281	1913
11282	1952
11283	1888
11284	1884
11285	1900
11286	1812
11287	1913
11288	2085
11289	2148
11290	2272
11291	2595
11292	3014
11293	3308
11294	3478
11295	3513
11296	3242
11297	2683
11298	2065
11299	1487
11300	881
11301	300
11302	-169
11303	-565
11304	-801
11305	-709
11306	-337
11307	205
11308	793
11309	1091
11310	862
11311	214
11312	-422
11313	-1112
11314	-1537
11315	-1807
11316	-1961
11317	-2114
11318	-2420
11319	-2979
11320	-3217
11321	-3424
11322	-3308
11323	-2942
11324	-2264
11325	-1476
11326	-1128
11327	-848
11328	-851
11329	-980
11330	-923
11331	-703
11332	-554
11333	-477
11334	-632
11335	-1233
11336	-2045
11337	-2767
11338	-3335
11339	-3613
11340	-3481
11341	-3088
11342	-2531
11343	-1786
11344	-1027
11345	-324
11346	499
11347	1325
11348	1825
11349	2017
11350	1984
11351	1521
11352	613
11353	-327
11354	-1028
11355	-1707
11356	-2477
11357	-3052
11358	-3398
11359	-3739
11360	-3943
11361	-3740
11362	-3308
11363	-2956
11364	-2592
11365	-2098
11366	-1646
11367	-1309
11368	-1029
11369	-934
11370	-1135
11371	-1314
11372	-915
11373	566
11374	3690
11375	8654
11376	14929
11377	21812
11378	28388
11379	33167
11380	34883
11381	33171
11382	28147
11383	20392
11384	11520
11385	3797
11386	-1409
11387	-3850
11388	-4237
11389	-2738
11390	-1088
11391	-303
11392	84
11393	160
11394	0
11395	-160
11396	0
11397	168
11398	457
11399	988
11400	1531
11401	1874
11402	1892
11403	1847
11404	1518
11405	1153
11406	1023
11407	1298
11408	1662
11409	2389
11410	3079
11411	3795
11412	4264
11413	4622
11414	5144
11415	6000
11416	7116
11417	8421
11418	9775
11419	10821
11420	11489
11421	12077
11422	12697
11423	13361
11424	14189
11425	15164
11426	16059
11427	16715
11428	17352
11429	18174
11430	19087
11431	20049
11432	20998
11433	21806
11434	22426
11435	22804
11436	23082
11437	23433
11438	23690
11439	23644
11440	23164
11441	22097
11442	20497
11443	18654
11444	16755
11445	14869
11446	13091
11447	11299
11448	10313
11449	8478
11450	6649
11451	5166
11452	4144
11453	3560
11454	3160
11455	3061
11456	3020
11457	2933
11458	2884
11459	2810
11460	2691
11461	2551
11462	2549
11463	2733
11464	2914
11465	3008
11466	2976
11467	2654
11468	2174
11469	1910
11470	1987
11471	2290
11472	2719
11473	3067
11474	2970
11475	2664
11476	2296
11477	1998
11478	1936
11479	2039
11480	2205
11481	2323
11482	2166
11483	1935
11484	1805
11485	1767
11486	1717
11487	1751
11488	1729
11489	1676
11490	1448
11491	1016
11492	693
11493	472
11494	255
11495	210
11496	305
11497	297
11498	122
11499	-108
11500	-277
11501	-438
11502	-383
11503	-262
11504	-156
11505	-109
11506	0
11507	107
11508	167
11509	428
11510	698
11511	485
11512	61
11513	-210
11514	-579
11515	-773
11516	-633
11517	-361
11518	0
11519	452
11520	933
11521	1243
11522	1450
11523	1601
11524	1661
11525	1677
11526	1783
11527	1986
11528	2176
11529	2165
11530	2056
11531	1548
11532	796
11533	-86
11534	-991
11535	-1888
11536	-2484
11537	-2570
11538	-2347
11539	-2023
11540	-1783
11541	-1909
11542	-2317
11543	-2903
11544	-3523
11545	-3811
11546	-3806
11547	-3358
11548	-2657
11549	-1295
11550	943
11551	4383
11552	9390
11553	14901
11554	20776
11555	26156
11556	29741
11557	30317
11558	27916
11559	22725
11560	14859
11561	5776
11562	-2461
11563	-8369
11564	-11716
11565	-12495
11566	-11208
11567	-8231
11568	-5644
11569	-3811
11570	-2734
11571	-2289
11572	-2200
11573	-1617
11574	-1355
11575	-1046
11576	-158
11577	965
11578	2134
11579	3185
11580	3963
11581	4227
11582	4209
11583	3734
11584	3337
11585	3504
11586	4011
11587	4748
11588	5744
11589	6531
11590	6891
11591	7179
11592	7482
11593	7778
11594	8509
11595	9780
11596	11220
11597	12969
